Time (s),I,II,III,AVR,AVL,AVF,V1,V2,V3,V4,V5,V6
0.0,0.20502,-0.02192,-0.20534,-0.07448,0.18782,-0.1079,0.2716,0.2282,0.29442,0.32206,0.13324,-0.07612
0.002,0.17286,-0.05116,-0.21658,-0.03724,0.17946,-0.12896,0.26662,0.22192,0.28186,0.30832,0.11794,-0.09096
0.004,0.10854,-0.07552,-0.1997,0.01486,0.12938,-0.13422,0.27658,0.21982,0.27288,0.2963,0.1092,-0.1021
0.006,0.10854,-0.09014,-0.21658,0.02232,0.14608,-0.15002,0.26662,0.20934,0.26032,0.28256,0.09392,-0.11696
0.008,0.12462,-0.09502,-0.23346,0.02232,0.16276,-0.16054,0.26662,0.20098,0.24954,0.2671,0.07644,-0.13924
0.01,0.10854,-0.10962,-0.23908,0.0372,0.16276,-0.17108,0.25664,0.1926,0.23876,0.25852,0.0677,-0.15408
0.012,0.09246,-0.11938,-0.23908,0.0521,0.15442,-0.17634,0.25664,0.18632,0.23338,0.2482,0.0546,-0.16152
0.014,0.08442,-0.13886,-0.25034,0.07444,0.15442,-0.19212,0.25166,0.18214,0.228,0.23962,0.04148,-0.18008
0.016,0.06832,-0.14374,-0.2447,0.08934,0.13772,-0.19212,0.24668,0.17794,0.22262,0.23446,0.03274,-0.1838
0.018,0.08442,-0.1486,-0.26158,0.08188,0.16276,-0.20266,0.2417,0.17584,0.22082,0.23274,0.02838,-0.1875
0.02,0.08442,-0.15348,-0.2672,0.08934,0.16276,-0.20792,0.24668,0.17376,0.22082,0.2293,0.02402,-0.1875
0.022,0.07636,-0.1681,-0.27846,0.10422,0.17112,-0.21844,0.25166,0.17166,0.21542,0.22588,0.01964,-0.19492
0.024,0.06028,-0.17296,-0.27284,0.11168,0.15442,-0.21844,0.25166,0.16956,0.21184,0.219,0.01528,-0.20236
0.026,0.08442,-0.1681,-0.28408,0.09678,0.17946,-0.2237,0.25664,0.16748,0.20824,0.21556,0.01308,-0.19864
0.028,0.08442,-0.18272,-0.30096,0.11168,0.18782,-0.2395,0.25664,0.16328,0.20466,0.2087,0.00436,-0.20606
0.03,0.06832,-0.19246,-0.30096,0.12658,0.17946,-0.24476,0.25166,0.1591,0.19926,0.20182,-0.00218,-0.2172
0.032,0.06028,-0.19734,-0.30096,0.12658,0.17946,-0.24476,0.26162,0.16328,0.20106,0.20182,0.0,-0.2172
0.034,0.03616,-0.2022,-0.29534,0.14146,0.16276,-0.25002,0.26662,0.16328,0.20106,0.2001,-0.00218,-0.2172
0.036,0.02008,-0.19734,-0.27846,0.14892,0.13772,-0.2395,0.25664,0.1591,0.19748,0.19838,-0.00656,-0.22464
0.038,0.02008,-0.20708,-0.2897,0.15636,0.14608,-0.25002,0.25664,0.157,0.19568,0.19666,-0.01092,-0.22834
0.04,0.0442,-0.2022,-0.30096,0.14146,0.17112,-0.25002,0.24668,0.15492,0.19388,0.19324,-0.01528,-0.23578
0.042,0.02812,-0.2022,-0.2897,0.14892,0.15442,-0.24476,0.24668,0.15492,0.1903,0.19324,-0.01528,-0.23578
0.044,0.01204,-0.2217,-0.30096,0.17126,0.15442,-0.2553,0.25664,0.157,0.19208,0.19324,-0.0131,-0.23578
0.046,0.02812,-0.21682,-0.30658,0.15636,0.16276,-0.2553,0.25664,0.15492,0.19208,0.19152,-0.0131,-0.23578
0.048,0.03616,-0.20708,-0.30096,0.14892,0.16276,-0.2553,0.26162,0.157,0.19208,0.18808,-0.01528,-0.23206
0.05,0.01204,-0.21194,-0.2897,0.1638,0.14608,-0.25002,0.25664,0.157,0.19208,0.18636,-0.01748,-0.23578
0.052,0.03616,-0.20708,-0.30096,0.14892,0.16276,-0.2553,0.25166,0.15282,0.1885,0.18636,-0.02184,-0.2432
0.054,0.05224,-0.20708,-0.3122,0.14146,0.17946,-0.2553,0.25664,0.15282,0.1903,0.18808,-0.01966,-0.2432
0.056,0.0442,-0.19734,-0.29534,0.13402,0.16276,-0.24476,0.25166,0.15282,0.1903,0.1898,-0.01966,-0.2432
0.058,0.05224,-0.2022,-0.30658,0.13402,0.17946,-0.2553,0.25166,0.157,0.19208,0.1898,-0.01966,-0.2432
0.06,0.05224,-0.2022,-0.30658,0.13402,0.17946,-0.2553,0.2417,0.15492,0.19208,0.1898,-0.01966,-0.2469
0.062,0.02812,-0.2022,-0.2897,0.14892,0.15442,-0.24476,0.2417,0.15282,0.1885,0.18808,-0.01966,-0.2469
0.064,0.02812,-0.21194,-0.30096,0.15636,0.16276,-0.2553,0.25166,0.15492,0.1903,0.18808,-0.01748,-0.2432
0.066,0.02812,-0.21194,-0.30096,0.15636,0.16276,-0.2553,0.25664,0.1591,0.19208,0.19152,-0.0131,-0.23578
0.068,0.03616,-0.21682,-0.3122,0.15636,0.17112,-0.26056,0.25664,0.1591,0.19208,0.19152,-0.0131,-0.23578
0.07,0.05224,-0.21682,-0.31784,0.14892,0.18782,-0.26582,0.25166,0.157,0.1903,0.18808,-0.01748,-0.23948
0.072,0.02812,-0.21682,-0.30658,0.15636,0.16276,-0.2553,0.26162,0.1591,0.19208,0.18808,-0.01748,-0.23206
0.074,0.03616,-0.22656,-0.31784,0.1638,0.17946,-0.27108,0.26662,0.1612,0.19568,0.19152,-0.01528,-0.22464
0.076,0.03616,-0.22656,-0.31784,0.1638,0.17946,-0.27108,0.26162,0.1612,0.19748,0.19152,-0.0131,-0.22834
0.078,0.03616,-0.2217,-0.31784,0.15636,0.17946,-0.26582,0.26662,0.1612,0.19748,0.19152,-0.01528,-0.23578
0.08,0.02812,-0.21682,-0.30658,0.15636,0.16276,-0.2553,0.26662,0.1591,0.19748,0.19496,-0.01528,-0.23206
0.082,0.05224,-0.21194,-0.31784,0.14146,0.18782,-0.26056,0.26162,0.157,0.19568,0.19324,-0.01528,-0.23206
0.084,0.07636,-0.21682,-0.3347,0.13402,0.20452,-0.27108,0.25664,0.15492,0.19568,0.19324,-0.0131,-0.23578
0.086,0.05224,-0.21194,-0.31784,0.14146,0.18782,-0.26056,0.26662,0.1591,0.19748,0.19324,-0.0131,-0.22834
0.088,0.0442,-0.20708,-0.30658,0.14146,0.17112,-0.2553,0.2716,0.1612,0.19748,0.19324,-0.0131,-0.22834
0.09,0.0442,-0.20708,-0.30658,0.14146,0.17112,-0.2553,0.26662,0.1591,0.19748,0.19324,-0.0131,-0.22834
0.092,0.06832,-0.2022,-0.31784,0.12658,0.19616,-0.2553,0.26662,0.1612,0.19748,0.19324,-0.0131,-0.23206
0.094,0.06028,-0.21194,-0.31784,0.14146,0.19616,-0.26056,0.26662,0.1612,0.19926,0.19324,-0.01528,-0.23206
0.096,0.0442,-0.21682,-0.31784,0.14892,0.17946,-0.26056,0.26662,0.16328,0.19926,0.19496,-0.01528,-0.23206
0.098,0.03616,-0.2217,-0.31784,0.15636,0.17946,-0.26582,0.26662,0.16328,0.20106,0.19666,-0.0131,-0.23206
0.1,0.06028,-0.21682,-0.32346,0.14146,0.19616,-0.26582,0.25664,0.16328,0.20106,0.19496,-0.0131,-0.23578
0.102,0.05224,-0.20708,-0.3122,0.14146,0.17946,-0.2553,0.26162,0.16328,0.19926,0.19496,-0.01528,-0.23578
0.104,0.05224,-0.20708,-0.3122,0.14146,0.17946,-0.2553,0.26162,0.1612,0.19748,0.19496,-0.01528,-0.23578
0.106,0.05224,-0.19734,-0.30096,0.13402,0.17112,-0.25002,0.26162,0.1612,0.19748,0.19496,-0.0131,-0.22834
0.108,0.06832,-0.19734,-0.3122,0.12658,0.18782,-0.2553,0.26662,0.1612,0.19748,0.19666,-0.0131,-0.22834
0.11,0.07636,-0.19734,-0.3122,0.12658,0.19616,-0.25002,0.26662,0.16328,0.19926,0.19496,-0.01528,-0.23206
0.112,0.06832,-0.19734,-0.3122,0.12658,0.18782,-0.2553,0.26662,0.16538,0.19926,0.19496,-0.01748,-0.23578
0.114,0.06832,-0.2022,-0.31784,0.12658,0.19616,-0.2553,0.26662,0.16748,0.20106,0.19496,-0.01966,-0.23206
0.116,0.06028,-0.19734,-0.30658,0.12658,0.17946,-0.25002,0.26662,0.16748,0.20106,0.19496,-0.01966,-0.23578
0.118,0.02812,-0.21194,-0.30096,0.15636,0.16276,-0.2553,0.2716,0.16748,0.20286,0.19666,-0.01966,-0.2432
0.12,0.02812,-0.21682,-0.30658,0.15636,0.16276,-0.2553,0.26662,0.16748,0.20286,0.19838,-0.01528,-0.23578
0.122,0.07636,-0.2022,-0.31784,0.12658,0.20452,-0.2553,0.26662,0.16538,0.20106,0.19838,-0.01528,-0.23206
0.124,0.1005,-0.19734,-0.3347,0.11168,0.2212,-0.26056,0.26162,0.16328,0.19926,0.19838,-0.0131,-0.23206
0.126,0.08442,-0.19734,-0.31784,0.12658,0.20452,-0.2553,0.26662,0.16538,0.19926,0.19838,-0.00874,-0.22834
0.128,0.06028,-0.20708,-0.31784,0.13402,0.18782,-0.2553,0.26662,0.16748,0.20106,0.19838,-0.00656,-0.22092
0.13,0.06832,-0.21194,-0.32346,0.13402,0.20452,-0.26582,0.26662,0.16748,0.20286,0.19666,-0.00656,-0.22092
0.132,0.06832,-0.20708,-0.31784,0.13402,0.19616,-0.26056,0.26662,0.16538,0.19926,0.19324,-0.01092,-0.22834
0.134,0.06028,-0.19734,-0.30658,0.12658,0.17946,-0.25002,0.26662,0.16748,0.20106,0.19666,-0.00656,-0.22464
0.136,0.0442,-0.19734,-0.29534,0.13402,0.16276,-0.24476,0.27658,0.16956,0.20466,0.19838,-0.00218,-0.2172
0.138,0.05224,-0.20708,-0.3122,0.14146,0.17946,-0.2553,0.28156,0.17166,0.20466,0.19838,-0.00436,-0.22464
0.14,0.0442,-0.21682,-0.31784,0.14892,0.17946,-0.26056,0.27658,0.16956,0.20466,0.2001,-0.00656,-0.22834
0.142,0.03616,-0.21682,-0.3122,0.15636,0.17112,-0.26056,0.2716,0.16748,0.20106,0.19838,-0.00656,-0.22834
0.144,0.03616,-0.21682,-0.3122,0.15636,0.17112,-0.26056,0.26662,0.16538,0.20106,0.19838,-0.00436,-0.22834
0.146,0.0442,-0.21682,-0.31784,0.14892,0.17946,-0.26056,0.2716,0.16748,0.20106,0.19666,-0.00436,-0.22834
0.148,0.0442,-0.2217,-0.31784,0.15636,0.18782,-0.26582,0.26662,0.16538,0.20106,0.19324,-0.00656,-0.22834
0.15,0.0442,-0.22656,-0.32346,0.15636,0.18782,-0.27108,0.26662,0.16328,0.19926,0.19152,-0.01092,-0.23206
0.152,0.03616,-0.22656,-0.31784,0.1638,0.17946,-0.27108,0.2716,0.16538,0.20286,0.19496,-0.00656,-0.22464
0.154,0.03616,-0.23144,-0.32346,0.1638,0.18782,-0.27634,0.26662,0.16748,0.20286,0.19496,-0.00874,-0.22834
0.156,0.0442,-0.2217,-0.31784,0.15636,0.18782,-0.26582,0.26662,0.16328,0.19926,0.19152,-0.0131,-0.23206
0.158,0.06832,-0.20708,-0.31784,0.13402,0.19616,-0.26056,0.26662,0.16328,0.19926,0.19152,-0.01748,-0.23948
0.16,0.06832,-0.19734,-0.3122,0.12658,0.18782,-0.2553,0.26662,0.16328,0.19926,0.19324,-0.01528,-0.23578
0.162,0.06028,-0.19734,-0.30658,0.12658,0.17946,-0.25002,0.26162,0.16328,0.19748,0.19324,-0.01528,-0.23578
0.164,0.03616,-0.20708,-0.30096,0.14892,0.16276,-0.2553,0.25664,0.1591,0.19568,0.1898,-0.01966,-0.23948
0.166,0.02812,-0.21194,-0.30096,0.15636,0.16276,-0.2553,0.26162,0.157,0.19208,0.18808,-0.01966,-0.2432
0.168,0.03616,-0.2217,-0.31784,0.15636,0.17946,-0.26582,0.26162,0.1591,0.19208,0.18636,-0.01748,-0.2432
0.17,0.06028,-0.21194,-0.31784,0.14146,0.19616,-0.26056,0.26162,0.1591,0.19208,0.18636,-0.01748,-0.2432
0.172,0.03616,-0.21682,-0.3122,0.15636,0.17112,-0.26056,0.26162,0.1591,0.19208,0.18636,-0.01748,-0.2432
0.174,0.02812,-0.22656,-0.31784,0.1638,0.17112,-0.26582,0.26162,0.1612,0.19388,0.18464,-0.01748,-0.23948
0.176,0.0442,-0.21194,-0.3122,0.14892,0.17946,-0.2553,0.26662,0.16328,0.19568,0.18636,-0.01748,-0.23578
0.178,0.05224,-0.20708,-0.3122,0.14146,0.17946,-0.2553,0.26662,0.16328,0.19568,0.18808,-0.01748,-0.23948
0.18,0.02812,-0.2217,-0.3122,0.1638,0.17112,-0.26056,0.26162,0.1591,0.19208,0.18636,-0.02184,-0.2432
0.182,0.02812,-0.22656,-0.31784,0.1638,0.17112,-0.26582,0.26162,0.1591,0.1903,0.18636,-0.02184,-0.2432
0.184,0.02812,-0.2363,-0.32346,0.17126,0.17946,-0.27634,0.25664,0.157,0.1885,0.18464,-0.02184,-0.2432
0.186,0.06028,-0.21682,-0.32346,0.14146,0.19616,-0.26582,0.26162,0.157,0.1903,0.18464,-0.01748,-0.23578
0.188,0.01204,-0.23144,-0.3122,0.1787,0.16276,-0.26582,0.26662,0.1591,0.1903,0.18464,-0.01966,-0.23578
0.19,-0.0201,-0.2363,-0.29534,0.1936,0.12938,-0.26056,0.26662,0.1591,0.1903,0.18292,-0.01966,-0.23206
0.192,0.02812,-0.23144,-0.31784,0.17126,0.17946,-0.27108,0.25664,0.157,0.1867,0.1795,-0.02184,-0.23578
0.194,0.03616,-0.22656,-0.31784,0.1638,0.17946,-0.27108,0.25664,0.15492,0.1849,0.1795,-0.02184,-0.23578
0.196,0.03616,-0.2217,-0.31784,0.15636,0.17946,-0.26582,0.25664,0.157,0.1867,0.1795,-0.02402,-0.23578
0.198,0.0442,-0.23144,-0.32908,0.1638,0.19616,-0.27634,0.25166,0.15492,0.1867,0.1795,-0.02622,-0.23948
0.2,0.02008,-0.24606,-0.32908,0.18614,0.17946,-0.28688,0.25166,0.157,0.1867,0.1795,-0.02622,-0.23948
0.202,0.02008,-0.25092,-0.3347,0.18614,0.18782,-0.29214,0.25664,0.15492,0.1849,0.1812,-0.02402,-0.23948
0.204,0.02812,-0.24606,-0.3347,0.1787,0.18782,-0.28688,0.25664,0.15492,0.1849,0.1812,-0.02402,-0.23948
0.206,0.02812,-0.2363,-0.32346,0.17126,0.17946,-0.27634,0.25664,0.15282,0.18312,0.1795,-0.02622,-0.2432
0.208,0.03616,-0.23144,-0.32346,0.1638,0.18782,-0.27634,0.25664,0.15282,0.18132,0.17606,-0.03058,-0.2432
0.21,0.004,-0.23144,-0.30658,0.1787,0.15442,-0.26582,0.25166,0.14864,0.17952,0.17262,-0.03276,-0.2469
0.212,0.004,-0.23144,-0.30658,0.1787,0.15442,-0.26582,0.25664,0.15072,0.17952,0.17262,-0.03276,-0.25062
0.214,0.02812,-0.21682,-0.30658,0.15636,0.16276,-0.2553,0.26162,0.15492,0.18312,0.17606,-0.03058,-0.25062
0.216,0.03616,-0.20708,-0.30096,0.14892,0.16276,-0.2553,0.26662,0.15282,0.18312,0.17606,-0.03058,-0.25062
0.218,0.05224,-0.20708,-0.3122,0.14146,0.17946,-0.2553,0.26162,0.15282,0.17952,0.17434,-0.03494,-0.25434
0.22,0.05224,-0.2217,-0.32346,0.14892,0.19616,-0.27108,0.25166,0.15072,0.17952,0.17434,-0.03276,-0.25062
0.222,0.06832,-0.23144,-0.34596,0.14892,0.21286,-0.28688,0.24668,0.15072,0.17952,0.17434,-0.03058,-0.2469
0.224,0.06028,-0.24118,-0.35158,0.1638,0.21286,-0.29214,0.25166,0.15072,0.17952,0.17778,-0.0284,-0.2469
0.226,0.03616,-0.24118,-0.3347,0.17126,0.19616,-0.28688,0.25664,0.15282,0.17952,0.17606,-0.0284,-0.2469
0.228,0.02008,-0.24118,-0.32346,0.1787,0.17946,-0.2816,0.2417,0.14864,0.17592,0.17262,-0.03058,-0.2469
0.23,0.02812,-0.23144,-0.31784,0.17126,0.17946,-0.27108,0.24668,0.15072,0.17592,0.17262,-0.03058,-0.2469
0.232,0.02812,-0.22656,-0.31784,0.1638,0.17112,-0.26582,0.25664,0.15072,0.17772,0.17262,-0.0284,-0.2469
0.234,0.01204,-0.23144,-0.3122,0.1787,0.16276,-0.26582,0.25664,0.15072,0.17772,0.17606,-0.02622,-0.2432
0.236,0.03616,-0.22656,-0.31784,0.1638,0.17946,-0.27108,0.25664,0.15072,0.17772,0.17778,-0.0284,-0.2432
0.238,0.0442,-0.22656,-0.32346,0.15636,0.18782,-0.27108,0.25664,0.15282,0.17772,0.17778,-0.03058,-0.2469
0.24,0.03616,-0.23144,-0.32346,0.1638,0.18782,-0.27634,0.25166,0.15282,0.17772,0.17606,-0.03058,-0.25062
0.242,0.0442,-0.2363,-0.3347,0.1638,0.19616,-0.2816,0.25166,0.15072,0.17772,0.17606,-0.03276,-0.2469
0.244,0.03616,-0.2363,-0.32908,0.17126,0.18782,-0.2816,0.25166,0.15072,0.17592,0.17434,-0.03276,-0.2469
0.246,0.02812,-0.23144,-0.31784,0.17126,0.17946,-0.27108,0.24668,0.14654,0.17234,0.17262,-0.03494,-0.2469
0.248,0.03616,-0.23144,-0.32346,0.1638,0.18782,-0.27634,0.2417,0.14654,0.17054,0.16746,-0.03494,-0.25062
0.25,0.02812,-0.23144,-0.31784,0.17126,0.17946,-0.27108,0.25166,0.14864,0.17414,0.16918,-0.03276,-0.25062
0.252,0.02008,-0.22656,-0.3122,0.17126,0.16276,-0.26582,0.25664,0.15282,0.17772,0.17434,-0.0284,-0.2432
0.254,0.01204,-0.23144,-0.3122,0.1787,0.16276,-0.26582,0.25664,0.15492,0.17952,0.17434,-0.0284,-0.2432
0.256,0.02812,-0.23144,-0.31784,0.17126,0.17946,-0.27108,0.24668,0.15072,0.17592,0.1709,-0.03058,-0.25062
0.258,0.01204,-0.2363,-0.31784,0.1787,0.16276,-0.27108,0.24668,0.14864,0.17414,0.16918,-0.03494,-0.25434
0.26,0.01204,-0.23144,-0.3122,0.1787,0.16276,-0.26582,0.24668,0.15072,0.17592,0.1709,-0.03276,-0.25062
0.262,0.02812,-0.23144,-0.31784,0.17126,0.17946,-0.27108,0.2367,0.14864,0.17414,0.1709,-0.03494,-0.25434
0.264,0.01204,-0.2363,-0.31784,0.1787,0.16276,-0.27108,0.23172,0.14654,0.17234,0.16746,-0.03714,-0.25804
0.266,0.004,-0.24118,-0.31784,0.18614,0.16276,-0.27634,0.23172,0.14444,0.17054,0.16746,-0.03494,-0.25804
0.268,0.004,-0.24606,-0.31784,0.1936,0.16276,-0.2816,0.2367,0.14654,0.17234,0.16918,-0.03276,-0.25062
0.27,0.004,-0.24606,-0.31784,0.1936,0.16276,-0.2816,0.2417,0.14654,0.17234,0.16918,-0.03276,-0.2469
0.272,0.0442,-0.2363,-0.3347,0.1638,0.19616,-0.2816,0.24668,0.14654,0.17414,0.16918,-0.03276,-0.2469
0.274,0.05224,-0.23144,-0.3347,0.15636,0.20452,-0.2816,0.2417,0.14654,0.17234,0.16746,-0.03494,-0.2469
0.276,0.02812,-0.22656,-0.31784,0.1638,0.17112,-0.26582,0.2417,0.14864,0.17054,0.16746,-0.03932,-0.25062
0.278,0.01204,-0.22656,-0.30658,0.17126,0.15442,-0.26056,0.24668,0.14864,0.17234,0.16918,-0.03932,-0.25434
0.28,0.0442,-0.2217,-0.31784,0.15636,0.18782,-0.26582,0.2367,0.14654,0.17234,0.16918,-0.0415,-0.26176
0.282,0.05224,-0.22656,-0.32908,0.15636,0.19616,-0.27634,0.23172,0.14234,0.16874,0.16574,-0.04368,-0.26918
0.284,0.03616,-0.2217,-0.31784,0.15636,0.17946,-0.26582,0.23172,0.14234,0.17234,0.16746,-0.03714,-0.26176
0.286,0.004,-0.23144,-0.30658,0.1787,0.15442,-0.26582,0.2417,0.14654,0.17414,0.1709,-0.03494,-0.25434
0.288,-0.01206,-0.24118,-0.30658,0.1936,0.14608,-0.27108,0.2367,0.14444,0.17054,0.16746,-0.03714,-0.25434
0.29,-0.00402,-0.24606,-0.31784,0.1936,0.15442,-0.27634,0.23172,0.14234,0.16874,0.16404,-0.03932,-0.25434
0.292,-0.00402,-0.25092,-0.31784,0.20104,0.16276,-0.2816,0.23172,0.14026,0.17054,0.16404,-0.03714,-0.25434
0.294,-0.00402,-0.24606,-0.31784,0.1936,0.15442,-0.27634,0.2367,0.14026,0.17054,0.16574,-0.03932,-0.25804
0.296,0.01204,-0.2363,-0.31784,0.1787,0.16276,-0.27108,0.2417,0.14444,0.17234,0.16918,-0.03494,-0.25434
0.298,0.02812,-0.2363,-0.32346,0.17126,0.17946,-0.27634,0.2367,0.14444,0.17234,0.1709,-0.03276,-0.25434
0.3,0.02812,-0.24606,-0.3347,0.1787,0.18782,-0.28688,0.23172,0.14654,0.17234,0.1709,-0.03276,-0.25434
0.302,0.03616,-0.2363,-0.32908,0.17126,0.18782,-0.2816,0.22674,0.14234,0.17054,0.1709,-0.03494,-0.25804
0.304,0.02812,-0.2363,-0.32346,0.17126,0.17946,-0.27634,0.22674,0.14444,0.17054,0.16918,-0.03494,-0.25804
0.306,0.004,-0.23144,-0.30658,0.1787,0.15442,-0.26582,0.22674,0.14234,0.16874,0.16918,-0.03494,-0.26176
0.308,0.02812,-0.21682,-0.30658,0.15636,0.16276,-0.2553,0.22674,0.14234,0.16874,0.16746,-0.03276,-0.25434
0.31,0.05224,-0.21194,-0.31784,0.14146,0.18782,-0.26056,0.22674,0.14234,0.16874,0.16746,-0.03276,-0.25062
0.312,0.03616,-0.22656,-0.31784,0.1638,0.17946,-0.27108,0.21678,0.14234,0.16874,0.16746,-0.03494,-0.25804
0.314,0.01204,-0.23144,-0.3122,0.1787,0.16276,-0.26582,0.22674,0.14234,0.17234,0.16918,-0.03276,-0.25062
0.316,-0.00402,-0.22656,-0.29534,0.1787,0.13772,-0.2553,0.23172,0.14654,0.17592,0.17434,-0.03058,-0.25062
0.318,-0.01206,-0.22656,-0.2897,0.18614,0.12938,-0.2553,0.22674,0.14864,0.17772,0.17606,-0.03058,-0.25062
0.32,-0.01206,-0.22656,-0.2897,0.18614,0.12938,-0.2553,0.23172,0.14864,0.17772,0.17606,-0.03276,-0.25434
0.322,0.01204,-0.20708,-0.28408,0.15636,0.13772,-0.24476,0.2417,0.15282,0.18132,0.1812,-0.0284,-0.2469
0.324,0.0442,-0.19246,-0.28408,0.12658,0.15442,-0.23424,0.24668,0.15492,0.1849,0.18292,-0.02622,-0.2469
0.326,0.03616,-0.19246,-0.27846,0.13402,0.14608,-0.23424,0.2367,0.15492,0.18312,0.1812,-0.0284,-0.2469
0.328,0.02812,-0.18758,-0.2672,0.13402,0.13772,-0.2237,0.2417,0.157,0.1849,0.18292,-0.02622,-0.2432
0.33,0.03616,-0.17296,-0.25596,0.12658,0.12938,-0.21318,0.25166,0.157,0.1849,0.18292,-0.02402,-0.2432
0.332,0.0442,-0.17296,-0.26158,0.11912,0.13772,-0.21318,0.25664,0.157,0.1867,0.18292,-0.02402,-0.2432
0.334,0.0442,-0.17296,-0.26158,0.11912,0.13772,-0.21318,0.26162,0.157,0.1885,0.18464,-0.02184,-0.2432
0.336,0.05224,-0.15348,-0.2447,0.10422,0.12938,-0.19738,0.26662,0.1612,0.1885,0.18808,-0.02184,-0.23948
0.338,0.0442,-0.16322,-0.25034,0.11168,0.12938,-0.20266,0.26662,0.1591,0.1885,0.18636,-0.02184,-0.2432
0.34,0.02812,-0.1681,-0.2447,0.12658,0.12102,-0.20266,0.2716,0.1612,0.1885,0.18636,-0.02402,-0.2469
0.342,0.07636,-0.1681,-0.27846,0.10422,0.17112,-0.21844,0.26662,0.1591,0.1885,0.18636,-0.02402,-0.25062
0.344,0.08442,-0.16322,-0.27846,0.09678,0.17112,-0.21844,0.2716,0.1591,0.1885,0.18636,-0.02184,-0.25062
0.346,0.02812,-0.1681,-0.2447,0.12658,0.12102,-0.20266,0.28156,0.16328,0.19388,0.1898,-0.01528,-0.23948
0.348,0.02812,-0.15836,-0.23346,0.11912,0.11268,-0.19212,0.28654,0.16748,0.19748,0.19324,-0.0131,-0.23206
0.35,0.0442,-0.13886,-0.2222,0.09678,0.11268,-0.17634,0.28654,0.16538,0.19388,0.1898,-0.01748,-0.23948
0.352,0.0442,-0.12424,-0.20534,0.08188,0.09598,-0.16054,0.28654,0.16328,0.19568,0.1898,-0.01748,-0.23578
0.354,0.0442,-0.1145,-0.19408,0.07444,0.08764,-0.15002,0.29152,0.16328,0.19568,0.19152,-0.01528,-0.23206
0.356,0.0442,-0.10476,-0.18284,0.067,0.07928,-0.13948,0.27658,0.157,0.19388,0.19324,-0.01528,-0.23578
0.358,0.0442,-0.10476,-0.18284,0.067,0.07928,-0.13948,0.26162,0.14864,0.1885,0.18808,-0.01748,-0.23578
0.36,0.03616,-0.10476,-0.1772,0.07444,0.07094,-0.13948,0.2417,0.13816,0.18132,0.1812,-0.02402,-0.23948
0.362,0.05224,-0.09988,-0.18284,0.05954,0.08764,-0.13948,0.22674,0.13188,0.17772,0.1812,-0.02184,-0.23948
0.364,0.0442,-0.10476,-0.18284,0.067,0.07928,-0.13948,0.22176,0.12978,0.17414,0.1795,-0.01966,-0.23578
0.366,0.06832,-0.09988,-0.19408,0.0521,0.10434,-0.14476,0.21678,0.13398,0.17592,0.1812,-0.0131,-0.22464
0.368,0.08442,-0.07064,-0.1772,0.02232,0.10434,-0.11844,0.2118,0.13398,0.17772,0.18464,-0.00874,-0.2172
0.37,0.07636,-0.07552,-0.17158,0.02976,0.08764,-0.11844,0.2068,0.1277,0.17592,0.1812,-0.01092,-0.22092
0.372,0.08442,-0.0804,-0.18284,0.02976,0.10434,-0.12896,0.19684,0.1277,0.17592,0.18464,-0.01092,-0.22092
0.374,0.08442,-0.0804,-0.18284,0.02976,0.10434,-0.12896,0.19684,0.12978,0.17414,0.1812,-0.01092,-0.22092
0.376,0.06028,-0.09502,-0.18284,0.0521,0.08764,-0.13422,0.19684,0.12978,0.17592,0.1812,-0.0131,-0.22092
0.378,0.06832,-0.10476,-0.1997,0.05954,0.10434,-0.15002,0.2068,0.13188,0.17592,0.1812,-0.0131,-0.22092
0.38,0.08442,-0.1145,-0.2222,0.05954,0.12938,-0.1658,0.20182,0.13398,0.17592,0.1812,-0.01748,-0.23206
0.382,0.07636,-0.12424,-0.22784,0.067,0.12938,-0.17108,0.20182,0.13398,0.17592,0.18464,-0.01528,-0.22464
0.384,0.06832,-0.13886,-0.23908,0.08188,0.13772,-0.18686,0.20182,0.13606,0.17592,0.18464,-0.0131,-0.22464
0.386,0.08442,-0.1486,-0.26158,0.08188,0.16276,-0.20266,0.2068,0.14026,0.17772,0.18464,-0.01092,-0.2172
0.388,0.11658,-0.1486,-0.2897,0.067,0.20452,-0.21318,0.2118,0.14444,0.18312,0.18808,-0.00656,-0.2135
0.39,0.11658,-0.15348,-0.29534,0.067,0.20452,-0.21844,0.2118,0.14444,0.1849,0.1898,-0.00436,-0.20978
0.392,0.11658,-0.1681,-0.3122,0.08188,0.21286,-0.23424,0.2118,0.14654,0.1867,0.19152,-0.00218,-0.20606
0.394,0.10854,-0.17296,-0.3122,0.08934,0.20452,-0.2395,0.2118,0.14444,0.1849,0.1898,-0.00656,-0.20978
0.396,0.10854,-0.17784,-0.31784,0.08934,0.21286,-0.24476,0.2118,0.14234,0.18312,0.18808,-0.00874,-0.20978
0.398,0.12462,-0.17296,-0.31784,0.08188,0.2212,-0.24476,0.2068,0.14234,0.18132,0.18636,-0.00874,-0.20606
0.4,0.12462,-0.1681,-0.31784,0.07444,0.2212,-0.2395,0.20182,0.14026,0.17952,0.18636,-0.00656,-0.20606
0.402,0.1005,-0.17784,-0.3122,0.09678,0.20452,-0.2395,0.19684,0.13816,0.17592,0.18292,-0.01092,-0.20978
0.404,0.1005,-0.1681,-0.30096,0.08934,0.20452,-0.22898,0.18688,0.13398,0.17234,0.17778,-0.01528,-0.2135
0.406,0.1005,-0.16322,-0.29534,0.08188,0.19616,-0.2237,0.18188,0.1277,0.16874,0.17606,-0.01748,-0.2135
0.408,0.10854,-0.17296,-0.3122,0.08934,0.20452,-0.2395,0.19186,0.13188,0.17234,0.17434,-0.01748,-0.2135
0.41,0.08442,-0.17784,-0.29534,0.10422,0.18782,-0.23424,0.20182,0.13816,0.17414,0.17606,-0.01528,-0.2135
0.412,0.05224,-0.19734,-0.29534,0.12658,0.17112,-0.24476,0.2068,0.14026,0.17414,0.17606,-0.01748,-0.22464
0.414,0.06832,-0.19734,-0.30658,0.12658,0.18782,-0.25002,0.2118,0.14026,0.17414,0.1709,-0.02402,-0.23206
0.416,0.08442,-0.19734,-0.31784,0.12658,0.20452,-0.2553,0.22176,0.14234,0.17592,0.17606,-0.02184,-0.23206
0.418,0.06832,-0.21682,-0.32908,0.14146,0.20452,-0.27108,0.21678,0.14234,0.17592,0.17606,-0.02402,-0.23206
0.42,0.05224,-0.22656,-0.32908,0.15636,0.19616,-0.27634,0.21678,0.14026,0.17592,0.17778,-0.02402,-0.23578
0.422,0.02812,-0.24606,-0.3347,0.1787,0.18782,-0.28688,0.22176,0.14234,0.17414,0.17606,-0.02622,-0.2432
0.424,0.01204,-0.26068,-0.34034,0.20104,0.18782,-0.2974,0.21678,0.13606,0.16874,0.16918,-0.03494,-0.25434
0.426,0.02812,-0.26068,-0.35158,0.1936,0.20452,-0.30266,0.21678,0.13606,0.16874,0.16918,-0.03494,-0.25804
0.428,0.02008,-0.25092,-0.3347,0.18614,0.18782,-0.29214,0.2118,0.13606,0.16874,0.16404,-0.03714,-0.25804
0.43,0.01204,-0.24606,-0.32346,0.18614,0.17112,-0.2816,0.2118,0.13606,0.16696,0.16232,-0.03714,-0.25804
0.432,0.02812,-0.24118,-0.32908,0.1787,0.18782,-0.2816,0.2118,0.13606,0.16516,0.16232,-0.03714,-0.26176
0.434,0.02812,-0.25092,-0.34034,0.18614,0.19616,-0.29214,0.2118,0.13398,0.16516,0.1606,-0.0415,-0.26176
0.436,-0.01206,-0.2558,-0.31784,0.20848,0.15442,-0.28688,0.22674,0.14026,0.17054,0.16574,-0.03494,-0.25062
0.438,0.02812,-0.24606,-0.3347,0.1787,0.18782,-0.28688,0.22674,0.14444,0.17234,0.16746,-0.03058,-0.2469
0.44,0.0442,-0.24606,-0.34596,0.17126,0.20452,-0.29214,0.22674,0.14444,0.17054,0.16746,-0.03058,-0.25062
0.442,0.01204,-0.26068,-0.34034,0.20104,0.18782,-0.2974,0.22674,0.14026,0.16874,0.16746,-0.03494,-0.25804
0.444,0.02812,-0.24606,-0.3347,0.1787,0.18782,-0.28688,0.22176,0.13816,0.16696,0.16404,-0.03494,-0.25804
0.446,0.004,-0.25092,-0.32346,0.1936,0.17112,-0.28688,0.23172,0.13816,0.16696,0.16574,-0.03058,-0.25434
0.448,-0.00402,-0.26068,-0.32908,0.20848,0.17112,-0.29214,0.2417,0.14026,0.16696,0.16404,-0.03276,-0.25434
0.45,0.004,-0.27528,-0.35158,0.21594,0.18782,-0.3132,0.2367,0.13816,0.16516,0.1606,-0.03714,-0.26548
0.452,0.004,-0.28504,-0.36284,0.22338,0.19616,-0.32372,0.2367,0.13816,0.16696,0.16232,-0.03714,-0.26548
0.454,-0.01206,-0.2899,-0.3572,0.23082,0.18782,-0.32372,0.2417,0.14026,0.16874,0.1606,-0.03714,-0.26548
0.456,-0.0201,-0.29478,-0.3572,0.23828,0.17946,-0.32372,0.2367,0.14026,0.16874,0.1606,-0.03714,-0.26918
0.458,-0.00402,-0.28504,-0.3572,0.22338,0.18782,-0.31846,0.2367,0.14026,0.16696,0.1606,-0.03714,-0.26918
0.46,-0.00402,-0.2899,-0.36284,0.23082,0.19616,-0.32372,0.23172,0.14026,0.16516,0.1606,-0.03714,-0.26918
0.462,0.004,-0.28016,-0.3572,0.21594,0.19616,-0.31846,0.23172,0.13816,0.16696,0.16232,-0.03714,-0.26548
0.464,0.01204,-0.27528,-0.3572,0.20848,0.19616,-0.3132,0.23172,0.14026,0.16874,0.16404,-0.03494,-0.26548
0.466,0.03616,-0.2558,-0.35158,0.18614,0.20452,-0.30266,0.24668,0.14444,0.17054,0.1709,-0.03058,-0.25804
0.468,0.02812,-0.2558,-0.34596,0.18614,0.19616,-0.2974,0.24668,0.14444,0.17054,0.16746,-0.03276,-0.25804
0.47,-0.00402,-0.27042,-0.34034,0.21594,0.17946,-0.30266,0.25166,0.14864,0.17414,0.16918,-0.03494,-0.26548
0.472,-0.01206,-0.28016,-0.34596,0.22338,0.17946,-0.3132,0.26662,0.15282,0.18132,0.17262,-0.03494,-0.26918
0.474,0.01204,-0.2899,-0.37408,0.22338,0.20452,-0.32898,0.27658,0.16748,0.1903,0.17778,-0.03714,-0.2729
0.476,0.01204,-0.31426,-0.4022,0.23828,0.2212,-0.3553,0.3015,0.18422,0.20646,0.18808,-0.03932,-0.28404
0.478,-0.02814,-0.34838,-0.41346,0.28296,0.21286,-0.38162,0.34136,0.20516,0.2244,0.2001,-0.0415,-0.3026
0.48,-0.0603,-0.3776,-0.4247,0.32018,0.20452,-0.40268,0.38622,0.23448,0.24954,0.219,-0.03932,-0.31746
0.482,-0.05226,-0.3971,-0.45284,0.33508,0.22956,-0.42372,0.43106,0.26378,0.28006,0.23962,-0.03058,-0.32488
0.484,-0.0201,-0.36786,-0.44158,0.29784,0.2379,-0.40268,0.46096,0.28472,0.3034,0.2671,-0.0131,-0.31746
0.486,0.0442,-0.30452,-0.41346,0.21594,0.24626,-0.3553,0.47592,0.30984,0.3411,0.3152,0.0262,-0.28404
0.488,0.09246,-0.25092,-0.39096,0.14892,0.26294,-0.31846,0.5108,0.35172,0.40216,0.37532,0.07426,-0.23948
0.49,0.1407,-0.21682,-0.38534,0.11168,0.27964,-0.2974,0.54568,0.39568,0.4632,0.44232,0.12668,-0.19492
0.492,0.19698,-0.17296,-0.36846,0.04466,0.29634,-0.26056,0.56562,0.42082,0.50988,0.50588,0.19222,-0.13924
0.494,0.2613,-0.10476,-0.3347,-0.03724,0.30468,-0.21318,0.55566,0.40824,0.50628,0.5368,0.24682,-0.07982
0.496,0.2774,-0.04628,-0.28408,-0.08936,0.2713,-0.15528,0.51578,0.358,0.45062,0.53508,0.2927,-0.02042
0.498,0.30152,0.02678,-0.21096,-0.1564,0.22956,-0.08158,0.451,0.28682,0.36984,0.51274,0.34076,0.05382
0.5,0.30956,0.11448,-0.11534,-0.22342,0.17112,0.00788,0.37126,0.20726,0.27648,0.49042,0.39754,0.1355
0.502,0.34976,0.20218,-0.0422,-0.31278,0.13772,0.0921,0.27658,0.11932,0.17952,0.46292,0.4609,0.23574
0.504,0.37388,0.3045,0.05902,-0.40214,0.07094,0.1921,0.2068,0.03976,0.10412,0.4406,0.5177,0.32114
0.506,0.32564,0.39708,0.19402,-0.44682,-0.05426,0.3079,0.13206,-0.04396,0.01614,0.38734,0.53736,0.37684
0.508,0.30956,0.48966,0.31778,-0.5064,-0.1461,0.41318,0.03238,-0.13818,-0.09156,0.28944,0.50678,0.3954
0.51,0.25326,0.5871,0.46402,-0.55852,-0.28802,0.53424,-0.04236,-0.21356,-0.18494,0.19496,0.46308,0.3917
0.512,0.1005,0.61634,0.60466,-0.51384,-0.48002,0.61846,-0.0872,-0.28894,-0.28368,0.05752,0.34294,0.32114
0.514,-0.07638,0.52376,0.62152,-0.35746,-0.5802,0.57636,-0.07226,-0.35802,-0.3932,-0.15546,0.08518,0.12808
0.516,-0.2935,0.34348,0.5709,-0.11916,-0.65534,0.45002,-0.01744,-0.40828,-0.5081,-0.43374,-0.27306,-0.17266
0.518,-0.38998,0.11936,0.37402,0.09678,-0.55516,0.23948,0.0274,-0.40618,-0.5512,-0.58146,-0.48276,-0.35458
0.52,-0.39802,-0.09014,0.13778,0.26062,-0.38818,0.0184,0.01244,-0.3978,-0.56376,-0.62098,-0.56358,-0.4474
0.522,-0.43018,-0.2363,-0.00846,0.38722,-0.29636,-0.12896,-0.0274,-0.40408,-0.57634,-0.64158,-0.60728,-0.50682
0.524,-0.43822,-0.33376,-0.1097,0.46168,-0.22122,-0.23424,-0.0872,-0.42084,-0.59428,-0.65018,-0.6313,-0.5588
0.526,-0.4704,-0.37274,-0.1322,0.50636,-0.22122,-0.26056,-0.15198,-0.44386,-0.60686,-0.64674,-0.6444,-0.60706
0.528,-0.5106,-0.36298,-0.09284,0.5138,-0.27132,-0.2395,-0.23172,-0.4648,-0.61942,-0.64846,-0.65534,-0.63676
0.53,-0.49452,-0.36298,-0.10408,0.50636,-0.25462,-0.24476,-0.32144,-0.47946,-0.62122,-0.63644,-0.65096,-0.65162
0.532,-0.4543,-0.35324,-0.12096,0.48402,-0.22122,-0.25002,-0.3912,-0.47736,-0.60146,-0.60894,-0.6313,-0.6442
0.534,-0.40606,-0.33376,-0.1322,0.44678,-0.18784,-0.24476,-0.44602,-0.45852,-0.57274,-0.57288,-0.60508,-0.64048
0.536,-0.42214,-0.31914,-0.10408,0.43934,-0.21288,-0.2237,-0.49088,-0.4313,-0.53684,-0.5368,-0.58762,-0.65534
0.538,-0.40606,-0.3776,-0.18284,0.47658,-0.1461,-0.28688,-0.49088,-0.38314,-0.48296,-0.48526,-0.55048,-0.6442
0.54,-0.3337,-0.47992,-0.35158,0.5287,0.0125,-0.42372,-0.42608,-0.31196,-0.40936,-0.41656,-0.50242,-0.6182
0.542,-0.32566,-0.55788,-0.4472,0.58082,0.08764,-0.50794,-0.34136,-0.25124,-0.34472,-0.35644,-0.46092,-0.59222
0.544,-0.31762,-0.6066,-0.5147,0.61806,0.13772,-0.56584,-0.26662,-0.20728,-0.28906,-0.29974,-0.4216,-0.58108
0.546,-0.30154,-0.6261,-0.54846,0.6255,0.17112,-0.59216,-0.25166,-0.19472,-0.25674,-0.26024,-0.3932,-0.57364
0.548,-0.30154,-0.64558,-0.56534,0.6404,0.18782,-0.61322,-0.25166,-0.18006,-0.22622,-0.2276,-0.36916,-0.55136
0.55,-0.26936,-0.63584,-0.57658,0.61806,0.20452,-0.61322,-0.23172,-0.15284,-0.18672,-0.18294,-0.33204,-0.52538
0.552,-0.197,-0.59686,-0.5822,0.55104,0.2546,-0.59216,-0.21678,-0.11934,-0.14184,-0.13484,-0.29272,-0.49568
0.554,-0.17288,-0.55302,-0.54846,0.50636,0.2379,-0.55532,-0.18688,-0.08374,-0.09876,-0.09534,-0.25558,-0.46598
0.556,-0.14876,-0.49942,-0.50908,0.45424,0.2212,-0.50268,-0.13206,-0.04396,-0.05206,-0.05238,-0.22062,-0.43256
0.558,-0.1166,-0.4507,-0.47534,0.40956,0.21286,-0.46584,-0.05232,0.00416,0.0,-0.0043,-0.1813,-0.39914
0.56,-0.0603,-0.3971,-0.4472,0.33508,0.2212,-0.42372,0.01244,0.04604,0.05384,0.04894,-0.1398,-0.35458
0.562,-0.04422,-0.32888,-0.3797,0.2755,0.18782,-0.3553,0.07724,0.08582,0.1059,0.09876,-0.09612,-0.31374
0.564,-0.04422,-0.30452,-0.35158,0.26062,0.16276,-0.32898,0.13704,0.11304,0.14002,0.13482,-0.06772,-0.28776
0.566,-0.0201,-0.29478,-0.3572,0.23828,0.17946,-0.32372,0.2068,0.14234,0.16696,0.16232,-0.04588,-0.26176
0.568,-0.01206,-0.30452,-0.37408,0.24572,0.19616,-0.3395,0.25166,0.16328,0.1903,0.1795,-0.03276,-0.25062
0.57,0.03616,-0.3094,-0.41346,0.22338,0.24626,-0.36056,0.26662,0.17794,0.20286,0.19324,-0.02184,-0.2432
0.572,0.0442,-0.3094,-0.41908,0.22338,0.2546,-0.36056,0.27658,0.18214,0.21542,0.20354,-0.01092,-0.23948
0.574,0.0442,-0.30452,-0.41346,0.21594,0.24626,-0.3553,0.26662,0.18214,0.21722,0.20526,-0.0131,-0.23578
0.576,0.06832,-0.28504,-0.40784,0.1936,0.2546,-0.34478,0.26662,0.18214,0.21902,0.2087,-0.00656,-0.22834
0.578,0.08442,-0.26068,-0.39096,0.1638,0.2546,-0.32372,0.26662,0.18632,0.22262,0.21384,-0.00218,-0.22464
0.58,0.08442,-0.26068,-0.39658,0.1638,0.26294,-0.32372,0.26662,0.18632,0.2244,0.219,0.00216,-0.22092
0.582,0.08442,-0.26068,-0.39658,0.1638,0.26294,-0.32372,0.26662,0.18632,0.228,0.22244,0.00216,-0.22092
0.584,0.06832,-0.27042,-0.39096,0.1787,0.24626,-0.32898,0.27658,0.1905,0.2298,0.22588,0.00436,-0.22092
0.586,0.03616,-0.28016,-0.3797,0.20104,0.2212,-0.32898,0.29152,0.19678,0.23698,0.23274,0.01308,-0.2135
0.588,0.02008,-0.30452,-0.39658,0.23082,0.2212,-0.35004,0.3015,0.20306,0.24236,0.2379,0.01308,-0.2135
0.59,0.02812,-0.31914,-0.41908,0.23828,0.24626,-0.36582,0.3015,0.20516,0.24416,0.23962,0.01528,-0.2135
0.592,0.02008,-0.31426,-0.40784,0.23828,0.22956,-0.36056,0.31146,0.20934,0.24954,0.24476,0.02182,-0.2135
0.594,0.06028,-0.2899,-0.40784,0.20104,0.2546,-0.34478,0.32142,0.21354,0.25492,0.24992,0.02402,-0.19864
0.596,0.08442,-0.27528,-0.40784,0.1787,0.26294,-0.3395,0.31146,0.21354,0.25672,0.25164,0.02838,-0.19864
0.598,0.08442,-0.2558,-0.38534,0.1638,0.24626,-0.31846,0.30648,0.21354,0.25852,0.25164,0.0262,-0.19864
0.6,0.08442,-0.25092,-0.38534,0.15636,0.2546,-0.3132,0.29652,0.20934,0.25852,0.25508,0.02838,-0.19864
0.602,0.08442,-0.2363,-0.36846,0.14146,0.2379,-0.2974,0.29652,0.21144,0.2621,0.25852,0.02838,-0.19492
0.604,0.08442,-0.2363,-0.36846,0.14146,0.2379,-0.2974,0.31146,0.21562,0.2657,0.26366,0.02838,-0.20236
0.606,0.08442,-0.24118,-0.37408,0.14892,0.24626,-0.30266,0.32142,0.21772,0.2693,0.2671,0.02838,-0.20236
0.608,0.08442,-0.25092,-0.3797,0.15636,0.24626,-0.3132,0.32642,0.21982,0.2693,0.26538,0.02838,-0.19864
0.61,0.08442,-0.26068,-0.39096,0.1638,0.2546,-0.32372,0.33638,0.224,0.27288,0.27054,0.03056,-0.19122
0.612,0.07636,-0.26554,-0.39096,0.17126,0.24626,-0.32372,0.34136,0.23028,0.27648,0.27398,0.0393,-0.1838
0.614,0.08442,-0.26554,-0.39658,0.17126,0.2546,-0.32898,0.32642,0.2282,0.27826,0.27398,0.04148,-0.1838
0.616,0.08442,-0.2558,-0.39096,0.15636,0.2546,-0.31846,0.32642,0.2282,0.27826,0.27568,0.04366,-0.1838
0.618,0.1005,-0.26068,-0.40784,0.15636,0.27964,-0.32898,0.31146,0.224,0.27468,0.26882,0.0393,-0.19122
0.62,0.09246,-0.24606,-0.38534,0.14892,0.2546,-0.3132,0.3015,0.21982,0.27648,0.27226,0.03712,-0.19122
0.622,0.03616,-0.2217,-0.31784,0.15636,0.17946,-0.26582,0.31644,0.224,0.28186,0.2774,0.04366,-0.1838
0.624,0.0442,-0.24118,-0.34034,0.17126,0.20452,-0.28688,0.31146,0.2282,0.28544,0.28084,0.04586,-0.1838
0.626,0.08442,-0.2558,-0.38534,0.1638,0.24626,-0.31846,0.31146,0.2282,0.28724,0.28428,0.04804,-0.1838
0.628,0.1005,-0.24118,-0.38534,0.14146,0.26294,-0.30792,0.32642,0.23028,0.28724,0.28428,0.04804,-0.1838
0.63,0.12462,-0.22656,-0.38534,0.12658,0.2713,-0.30266,0.33638,0.23448,0.28904,0.29114,0.05022,-0.18008
0.632,0.1005,-0.2363,-0.3797,0.13402,0.2546,-0.30266,0.33638,0.23448,0.29442,0.29458,0.05678,-0.18008
0.634,0.09246,-0.25092,-0.39096,0.14892,0.26294,-0.31846,0.33638,0.23656,0.29622,0.2963,0.05896,-0.17636
0.636,0.12462,-0.2363,-0.39658,0.12658,0.27964,-0.3132,0.34136,0.23866,0.29802,0.2963,0.05896,-0.17266
0.638,0.13266,-0.22656,-0.39096,0.11912,0.27964,-0.30266,0.34136,0.24076,0.3016,0.2963,0.05896,-0.17266
0.64,0.09246,-0.24118,-0.3797,0.14146,0.2546,-0.30792,0.34634,0.24076,0.3034,0.29802,0.06114,-0.16894
0.642,0.08442,-0.24606,-0.37408,0.15636,0.2379,-0.30792,0.34136,0.23866,0.3034,0.29802,0.05896,-0.17266
0.644,0.09246,-0.2363,-0.37408,0.14146,0.24626,-0.30266,0.33638,0.24076,0.3034,0.30146,0.05896,-0.17636
0.646,0.1005,-0.22656,-0.36846,0.12658,0.24626,-0.29214,0.34136,0.24076,0.3052,0.30318,0.05896,-0.18008
0.648,0.11658,-0.21682,-0.36846,0.11912,0.2546,-0.28688,0.34634,0.24494,0.3088,0.3049,0.06114,-0.17636
0.65,0.13266,-0.2217,-0.38534,0.11912,0.27964,-0.2974,0.34634,0.24494,0.3088,0.30832,0.06332,-0.17636
0.652,0.12462,-0.23144,-0.39096,0.12658,0.27964,-0.30792,0.35134,0.24704,0.31058,0.31176,0.0677,-0.17266
0.654,0.10854,-0.24118,-0.39096,0.13402,0.2713,-0.3132,0.3613,0.25122,0.31598,0.31692,0.07426,-0.1578
0.656,0.1005,-0.24118,-0.38534,0.14146,0.26294,-0.30792,0.36628,0.2554,0.31956,0.32036,0.07862,-0.15038
0.658,0.1005,-0.24118,-0.38534,0.14146,0.26294,-0.30792,0.35632,0.2554,0.32136,0.31864,0.07862,-0.15038
0.66,0.11658,-0.2363,-0.39096,0.12658,0.2713,-0.30792,0.35134,0.2575,0.32494,0.32378,0.07862,-0.15038
0.662,0.1005,-0.23144,-0.37408,0.13402,0.2546,-0.2974,0.34634,0.2554,0.32316,0.32206,0.07644,-0.15408
0.664,0.14874,-0.20708,-0.3797,0.09678,0.27964,-0.28688,0.34634,0.2575,0.32674,0.3255,0.07862,-0.1578
0.666,0.14874,-0.21194,-0.38534,0.10422,0.288,-0.29214,0.34634,0.2575,0.33034,0.33238,0.08298,-0.1578
0.668,0.11658,-0.2217,-0.37408,0.12658,0.26294,-0.29214,0.35134,0.2617,0.33392,0.3341,0.08298,-0.1578
0.67,0.12462,-0.2217,-0.3797,0.11912,0.2713,-0.2974,0.36628,0.26588,0.33752,0.33924,0.08736,-0.15408
0.672,0.11658,-0.23144,-0.38534,0.12658,0.2713,-0.30266,0.36628,0.26588,0.33932,0.34096,0.08954,-0.15038
0.674,0.12462,-0.24606,-0.40784,0.13402,0.288,-0.32372,0.3613,0.26588,0.3411,0.33924,0.09172,-0.14666
0.676,0.11658,-0.24118,-0.39658,0.13402,0.27964,-0.3132,0.37126,0.27006,0.3465,0.3444,0.0961,-0.13924
0.678,0.13266,-0.23144,-0.39658,0.12658,0.288,-0.30792,0.37624,0.27426,0.35188,0.34612,0.09828,-0.13552
0.68,0.14874,-0.23144,-0.40784,0.11912,0.30468,-0.3132,0.37624,0.27426,0.35188,0.34956,0.09828,-0.13552
0.682,0.15678,-0.21194,-0.39096,0.09678,0.29634,-0.2974,0.37624,0.27844,0.35726,0.35642,0.10264,-0.1281
0.684,0.16482,-0.19734,-0.3797,0.08188,0.288,-0.2816,0.37126,0.28262,0.36086,0.35986,0.10702,-0.1281
0.686,0.16482,-0.19734,-0.37408,0.08188,0.288,-0.27634,0.37624,0.28472,0.36444,0.36502,0.10702,-0.1281
0.688,0.18894,-0.18272,-0.37408,0.05954,0.29634,-0.27108,0.37624,0.28682,0.36804,0.36674,0.11138,-0.1281
0.69,0.19698,-0.18272,-0.3797,0.0521,0.30468,-0.27108,0.38124,0.291,0.36984,0.37016,0.11138,-0.1281
0.692,0.1809,-0.19734,-0.38534,0.07444,0.30468,-0.2816,0.38622,0.2931,0.37342,0.37016,0.11576,-0.1281
0.694,0.18894,-0.19734,-0.39096,0.067,0.31304,-0.28688,0.3912,0.29728,0.37702,0.3736,0.12012,-0.11696
0.696,0.14874,-0.21194,-0.38534,0.10422,0.288,-0.29214,0.38622,0.29938,0.37702,0.37532,0.1223,-0.11324
0.698,0.12462,-0.2363,-0.39658,0.12658,0.27964,-0.3132,0.37624,0.30148,0.3824,0.37704,0.1245,-0.11696
0.7,0.15678,-0.23144,-0.41346,0.11168,0.31304,-0.31846,0.38124,0.30984,0.38958,0.38562,0.12668,-0.10954
0.702,0.14874,-0.22656,-0.4022,0.11168,0.29634,-0.30792,0.38124,0.31404,0.39498,0.39078,0.13104,-0.1021
0.704,0.1809,-0.20708,-0.4022,0.08188,0.31304,-0.2974,0.39618,0.32032,0.40216,0.39594,0.13542,-0.0984
0.706,0.21306,-0.19246,-0.4022,0.0521,0.32974,-0.28688,0.40614,0.3266,0.40934,0.4028,0.14196,-0.09096
0.708,0.21306,-0.19246,-0.4022,0.0521,0.32974,-0.28688,0.40614,0.33288,0.41292,0.40968,0.14634,-0.08726
0.71,0.19698,-0.19734,-0.4022,0.067,0.32138,-0.29214,0.41114,0.33706,0.41832,0.41482,0.14634,-0.09096
0.712,0.21306,-0.19734,-0.41346,0.05954,0.33808,-0.2974,0.41612,0.34334,0.4237,0.4217,0.15508,-0.08726
0.714,0.25326,-0.18758,-0.4247,0.02976,0.37148,-0.2974,0.42608,0.35172,0.43446,0.42858,0.16162,-0.07612
0.716,0.25326,-0.17296,-0.40784,0.02232,0.35478,-0.2816,0.43606,0.35382,0.43986,0.43372,0.166,-0.06868
0.718,0.24522,-0.17784,-0.40784,0.02976,0.35478,-0.2816,0.42608,0.3559,0.44166,0.43544,0.17036,-0.06868
0.72,0.24522,-0.18758,-0.41908,0.0372,0.36312,-0.29214,0.43606,0.36218,0.44884,0.4406,0.17474,-0.06126
0.722,0.22914,-0.18758,-0.40784,0.04466,0.34642,-0.28688,0.43606,0.36846,0.4578,0.44918,0.18128,-0.05384
0.724,0.23718,-0.18272,-0.40784,0.0372,0.34642,-0.28688,0.44602,0.37684,0.465,0.45778,0.18566,-0.05384
0.726,0.2613,-0.1681,-0.40784,0.01486,0.36312,-0.27634,0.451,0.38104,0.47218,0.46292,0.19222,-0.04642
0.728,0.25326,-0.17784,-0.41346,0.02232,0.36312,-0.28688,0.44602,0.38522,0.47756,0.46636,0.19658,-0.0427
0.73,0.24522,-0.18758,-0.41908,0.0372,0.36312,-0.29214,0.45598,0.3915,0.48474,0.47496,0.20094,-0.03898
0.732,0.24522,-0.18758,-0.41908,0.0372,0.36312,-0.29214,0.46096,0.39778,0.49192,0.48354,0.20968,-0.03528
0.734,0.29348,-0.18758,-0.45284,0.01486,0.41322,-0.30792,0.46596,0.40824,0.5027,0.49212,0.21624,-0.02414
0.736,0.32564,-0.17784,-0.46408,-0.00746,0.43826,-0.30792,0.46596,0.41454,0.51168,0.499,0.2206,-0.0167
0.738,0.33368,-0.16322,-0.45284,-0.02234,0.42992,-0.2974,0.46596,0.42082,0.51706,0.50416,0.22498,-0.0167
0.74,0.29348,-0.1681,-0.43034,0.0,0.39652,-0.28688,0.46596,0.4271,0.52604,0.51102,0.23372,-0.00558
0.742,0.28544,-0.16322,-0.41908,0.0,0.37982,-0.2816,0.46596,0.43338,0.53322,0.52134,0.24464,0.00554
0.744,0.34172,-0.1486,-0.44158,-0.03724,0.42992,-0.2816,0.47592,0.44174,0.5422,0.52992,0.2512,0.01298
0.746,0.3578,-0.13886,-0.44158,-0.05214,0.43826,-0.27634,0.48588,0.44802,0.55118,0.54022,0.25992,0.0204
0.748,0.34976,-0.13398,-0.43034,-0.05214,0.42156,-0.27108,0.49088,0.45432,0.55836,0.55054,0.26648,0.02412
0.75,0.3578,-0.14374,-0.4472,-0.05214,0.43826,-0.2816,0.50084,0.46268,0.56912,0.56084,0.2774,0.03526
0.752,0.3578,-0.14374,-0.4472,-0.05214,0.43826,-0.2816,0.50582,0.47106,0.5781,0.56942,0.29052,0.04268
0.754,0.37388,-0.14374,-0.45846,-0.05958,0.45496,-0.28688,0.51578,0.47524,0.58708,0.5763,0.29488,0.05382
0.756,0.398,-0.12912,-0.45846,-0.08192,0.47166,-0.2816,0.52576,0.48362,0.59426,0.58488,0.30362,0.06496
0.758,0.398,-0.12424,-0.45284,-0.08192,0.4633,-0.27634,0.53074,0.4899,0.60324,0.59176,0.31236,0.0761
0.76,0.38996,-0.13886,-0.46408,-0.06702,0.47166,-0.28688,0.5407,0.4941,0.61042,0.59692,0.3189,0.08352
0.762,0.40604,-0.12424,-0.45846,-0.08936,0.47166,-0.27634,0.54568,0.50246,0.6194,0.60722,0.32764,0.10208
0.764,0.4543,-0.09988,-0.4697,-0.13406,0.5134,-0.27108,0.5407,0.50456,0.62298,0.6158,0.33638,0.10952
0.766,0.4543,-0.09014,-0.45846,-0.1415,0.50504,-0.26056,0.55068,0.51084,0.62838,0.62612,0.3473,0.11694
0.768,0.43016,-0.0804,-0.43034,-0.13406,0.47166,-0.24476,0.55068,0.51502,0.63196,0.63126,0.35386,0.11694
0.77,0.42212,-0.09014,-0.43596,-0.1266,0.47166,-0.2553,0.54568,0.51294,0.63196,0.63298,0.35604,0.11694
0.772,0.4543,-0.07064,-0.43596,-0.1564,0.48834,-0.24476,0.54568,0.51502,0.63376,0.63986,0.36478,0.12436
0.774,0.4945,-0.04628,-0.43596,-0.18618,0.50504,-0.22898,0.55068,0.51712,0.63736,0.64158,0.37352,0.13922
0.776,0.51058,-0.02192,-0.41908,-0.20852,0.50504,-0.20792,0.55068,0.51922,0.63736,0.64672,0.38008,0.15036
0.778,0.52666,-0.01218,-0.41908,-0.22342,0.5134,-0.20266,0.5407,0.51712,0.63736,0.64844,0.38662,0.1615
0.78,0.51862,-0.01706,-0.41908,-0.21596,0.50504,-0.20792,0.5407,0.51502,0.63736,0.65188,0.39318,0.17262
0.782,0.51862,-0.01706,-0.41908,-0.21596,0.50504,-0.20792,0.53074,0.51084,0.63376,0.65188,0.39754,0.18006
0.784,0.51058,-0.01218,-0.40784,-0.21596,0.4967,-0.19738,0.52078,0.50456,0.62658,0.65016,0.39754,0.18376
0.786,0.48646,-0.0073,-0.38534,-0.20852,0.4633,-0.18686,0.52078,0.50246,0.6212,0.65016,0.40192,0.1912
0.788,0.47842,-0.00244,-0.36846,-0.21596,0.4466,-0.17108,0.5108,0.492,0.61222,0.64672,0.4041,0.1949
0.79,0.47038,0.00242,-0.3572,-0.21596,0.43826,-0.1658,0.50582,0.48152,0.59786,0.63814,0.40192,0.20234
0.792,0.47842,0.0219,-0.34034,-0.23086,0.42992,-0.14476,0.50084,0.47106,0.58888,0.63298,0.4041,0.20604
0.794,0.50254,0.0414,-0.3347,-0.26064,0.43826,-0.13422,0.49586,0.46268,0.5817,0.62784,0.40628,0.21348
0.796,0.48646,0.05602,-0.3122,-0.26064,0.40486,-0.11318,0.4809,0.45012,0.56374,0.6141,0.39754,0.20976
0.798,0.46234,0.05114,-0.30096,-0.24576,0.38816,-0.1079,0.46596,0.43128,0.54578,0.5952,0.38444,0.19862
0.8,0.44624,0.07062,-0.2672,-0.2532,0.35478,-0.08158,0.451,0.41244,0.52424,0.5763,0.36916,0.18748
0.802,0.42212,0.08524,-0.23346,-0.2532,0.31304,-0.06054,0.42608,0.3936,0.5045,0.55568,0.35168,0.17262
0.804,0.40604,0.095,-0.21096,-0.2532,0.288,-0.04474,0.40614,0.37684,0.48294,0.5385,0.33638,0.15778
0.806,0.398,0.09986,-0.19408,-0.2532,0.2713,-0.03948,0.38124,0.3559,0.4614,0.51962,0.31672,0.1355
0.808,0.38192,0.08524,-0.1997,-0.23086,0.26294,-0.04474,0.35632,0.33916,0.44166,0.499,0.2927,0.11694
0.81,0.34172,0.0755,-0.18284,-0.20852,0.22956,-0.04474,0.3613,0.3266,0.4237,0.4801,0.27958,0.1058
0.812,0.30956,0.06088,-0.1772,-0.17874,0.21286,-0.04474,0.35632,0.31194,0.40574,0.46292,0.26648,0.09466
0.814,0.28544,0.0414,-0.18284,-0.16384,0.20452,-0.06054,0.35134,0.29938,0.38958,0.4406,0.249,0.0798
0.816,0.26936,0.02678,-0.18846,-0.1415,0.20452,-0.07106,0.34634,0.28472,0.37162,0.41826,0.22498,0.05752
0.818,0.2613,0.0219,-0.18846,-0.13406,0.20452,-0.07106,0.32642,0.27006,0.35368,0.39422,0.20314,0.03154
0.82,0.24522,0.01216,-0.18846,-0.11916,0.19616,-0.07632,0.31146,0.2596,0.33752,0.37532,0.18566,0.00926
0.822,0.23718,-0.00244,-0.20534,-0.10426,0.20452,-0.09738,0.29652,0.24284,0.31956,0.35814,0.166,-0.00928
0.824,0.21306,-0.03168,-0.2222,-0.06702,0.20452,-0.11844,0.28654,0.23028,0.3052,0.34096,0.14416,-0.03156
0.826,0.16482,-0.0609,-0.2222,-0.02234,0.17946,-0.13422,0.28654,0.22192,0.29442,0.3255,0.12668,-0.05012
0.828,0.12462,-0.0804,-0.21658,0.00742,0.15442,-0.14476,0.29152,0.21772,0.28544,0.31348,0.11358,-0.06498
0.83,0.12462,-0.09014,-0.22784,0.01486,0.16276,-0.15528,0.28156,0.21144,0.27288,0.29802,0.10046,-0.07612
0.832,0.14874,-0.09502,-0.25034,0.00742,0.18782,-0.1658,0.26662,0.20306,0.26032,0.286,0.08518,-0.09468
0.834,0.12462,-0.10962,-0.25034,0.02976,0.17946,-0.17634,0.26162,0.1947,0.25134,0.27226,0.07206,-0.10954
0.836,0.08442,-0.12424,-0.23346,0.067,0.13772,-0.17634,0.26162,0.18842,0.24236,0.26022,0.05896,-0.12438
0.838,0.08442,-0.12912,-0.23908,0.067,0.14608,-0.1816,0.26162,0.18422,0.23518,0.24992,0.04804,-0.13924
0.84,0.09246,-0.13398,-0.25596,0.067,0.16276,-0.19212,0.25664,0.18214,0.2298,0.24306,0.0393,-0.14294
0.842,0.09246,-0.15348,-0.27846,0.08188,0.17946,-0.21318,0.24668,0.17794,0.2244,0.23618,0.02838,-0.15408
0.844,0.08442,-0.16322,-0.28408,0.08934,0.17946,-0.21844,0.24668,0.17794,0.22262,0.2293,0.02402,-0.16152
0.846,0.06832,-0.17296,-0.27846,0.11168,0.16276,-0.2237,0.24668,0.17166,0.21722,0.22416,0.01746,-0.16894
0.848,0.06028,-0.19246,-0.29534,0.12658,0.17112,-0.2395,0.2417,0.16956,0.21364,0.21728,0.01308,-0.17636
0.85,0.05224,-0.19734,-0.30096,0.13402,0.17112,-0.25002,0.23172,0.16538,0.20824,0.21212,0.00654,-0.1838
0.852,0.05224,-0.19734,-0.29534,0.12658,0.17112,-0.24476,0.22674,0.16328,0.20466,0.20698,0.00216,-0.19122
0.854,0.06832,-0.19246,-0.30096,0.12658,0.17946,-0.24476,0.23172,0.16328,0.20286,0.20526,0.0,-0.19122
0.856,0.08442,-0.18272,-0.30096,0.11168,0.18782,-0.2395,0.2367,0.1612,0.20106,0.20354,-0.00436,-0.19492
0.858,0.08442,-0.17784,-0.29534,0.10422,0.18782,-0.23424,0.2417,0.16328,0.20286,0.20182,-0.00436,-0.19492
0.86,0.0442,-0.19734,-0.2897,0.13402,0.16276,-0.2395,0.24668,0.1612,0.20106,0.2001,-0.00874,-0.20236
0.862,0.03616,-0.21682,-0.3122,0.15636,0.17112,-0.26056,0.24668,0.1591,0.19926,0.19496,-0.01528,-0.20978
0.864,0.03616,-0.2217,-0.31784,0.15636,0.17946,-0.26582,0.24668,0.16328,0.20106,0.19666,-0.0131,-0.20978
0.866,0.05224,-0.21682,-0.31784,0.14892,0.18782,-0.26582,0.25166,0.16538,0.20106,0.19838,-0.0131,-0.20236
0.868,0.05224,-0.22656,-0.32908,0.15636,0.19616,-0.27634,0.25166,0.1612,0.19926,0.19496,-0.01748,-0.20978
0.87,0.03616,-0.23144,-0.32346,0.1638,0.18782,-0.27634,0.25166,0.1612,0.19926,0.19496,-0.01748,-0.20978
0.872,0.004,-0.2363,-0.3122,0.18614,0.15442,-0.27108,0.25166,0.1612,0.19568,0.1898,-0.01966,-0.22092
0.874,0.02812,-0.22656,-0.31784,0.1638,0.17112,-0.26582,0.25166,0.157,0.19208,0.18636,-0.02184,-0.2172
0.876,0.0442,-0.2217,-0.31784,0.15636,0.18782,-0.26582,0.25664,0.15492,0.1903,0.18292,-0.02622,-0.22092
0.878,0.02812,-0.2217,-0.3122,0.1638,0.17112,-0.26056,0.25664,0.157,0.19388,0.18464,-0.02184,-0.2172
0.88,0.01204,-0.23144,-0.3122,0.1787,0.16276,-0.26582,0.25664,0.1591,0.19388,0.18808,-0.02184,-0.2135
0.882,0.03616,-0.2363,-0.32908,0.17126,0.18782,-0.2816,0.26162,0.1612,0.19208,0.18636,-0.02622,-0.2172
0.884,0.0442,-0.24118,-0.34034,0.17126,0.20452,-0.28688,0.26162,0.1612,0.19568,0.18636,-0.02402,-0.2135
0.886,0.03616,-0.24606,-0.34034,0.1787,0.19616,-0.29214,0.25166,0.1612,0.19388,0.18808,-0.02622,-0.2135
0.888,0.03616,-0.2558,-0.35158,0.18614,0.20452,-0.30266,0.25166,0.16328,0.19388,0.18808,-0.02402,-0.2135
0.89,0.0442,-0.24606,-0.34596,0.17126,0.20452,-0.29214,0.25664,0.16328,0.19568,0.1898,-0.01966,-0.2135
0.892,0.05224,-0.2363,-0.34034,0.1638,0.20452,-0.28688,0.25166,0.1612,0.19568,0.1898,-0.01966,-0.2135
0.894,0.02812,-0.24118,-0.32908,0.1787,0.18782,-0.2816,0.25166,0.1612,0.19388,0.18808,-0.01966,-0.20978
0.896,0.004,-0.24118,-0.31784,0.18614,0.16276,-0.27634,0.25664,0.1591,0.19208,0.18292,-0.02184,-0.2135
0.898,0.02008,-0.23144,-0.31784,0.17126,0.17112,-0.27108,0.26162,0.1612,0.19388,0.18292,-0.02402,-0.20978
0.9,0.02008,-0.2363,-0.31784,0.1787,0.17112,-0.27634,0.26162,0.1612,0.19748,0.18808,-0.02184,-0.20978
0.902,0.03616,-0.23144,-0.32346,0.1638,0.18782,-0.27634,0.25664,0.16538,0.19926,0.1898,-0.02184,-0.20606
0.904,0.06028,-0.2217,-0.32908,0.14892,0.20452,-0.27108,0.25664,0.16538,0.19926,0.1898,-0.02184,-0.20606
0.906,0.06832,-0.2217,-0.3347,0.14146,0.20452,-0.27634,0.25664,0.1612,0.19748,0.1898,-0.02402,-0.2135
0.908,0.06028,-0.2363,-0.34596,0.15636,0.20452,-0.28688,0.26162,0.16328,0.19926,0.19324,-0.02184,-0.20606
0.91,0.0442,-0.2363,-0.3347,0.1638,0.19616,-0.2816,0.26662,0.16748,0.20106,0.19324,-0.01966,-0.20236
0.912,0.07636,-0.2217,-0.34034,0.14146,0.21286,-0.27634,0.26662,0.17166,0.20466,0.19666,-0.0131,-0.19864
0.914,0.06832,-0.23144,-0.34596,0.14892,0.21286,-0.28688,0.26662,0.17166,0.20106,0.19496,-0.0131,-0.19864
0.916,0.05224,-0.24118,-0.34596,0.1638,0.20452,-0.29214,0.26662,0.17166,0.19926,0.19152,-0.01748,-0.20606
0.918,0.05224,-0.24606,-0.35158,0.17126,0.20452,-0.2974,0.26662,0.17166,0.20106,0.1898,-0.01528,-0.20606
0.92,0.03616,-0.25092,-0.34596,0.1787,0.20452,-0.2974,0.26662,0.17166,0.19926,0.18808,-0.01748,-0.20606
0.922,0.01204,-0.25092,-0.32908,0.1936,0.17946,-0.28688,0.26662,0.16748,0.19568,0.18464,-0.02402,-0.2135
0.924,-0.00402,-0.24118,-0.3122,0.1936,0.15442,-0.27108,0.26662,0.16538,0.19388,0.1898,-0.02402,-0.20978
0.926,0.004,-0.24118,-0.31784,0.18614,0.16276,-0.27634,0.26162,0.16328,0.19568,0.19152,-0.01966,-0.20978
0.928,0.01204,-0.24118,-0.31784,0.18614,0.17112,-0.27634,0.26662,0.16748,0.19926,0.19496,-0.01748,-0.20606
0.93,0.0442,-0.22656,-0.32346,0.15636,0.18782,-0.27108,0.26662,0.17166,0.20106,0.19838,-0.0131,-0.20236
0.932,0.08442,-0.2217,-0.34596,0.13402,0.2212,-0.2816,0.26162,0.17166,0.20106,0.19496,-0.0131,-0.20606
0.934,0.08442,-0.2217,-0.34596,0.13402,0.2212,-0.2816,0.26162,0.17166,0.19926,0.19324,-0.0131,-0.20236
0.936,0.05224,-0.21682,-0.31784,0.14892,0.18782,-0.26582,0.26162,0.17166,0.19926,0.19324,-0.01092,-0.19864
0.938,0.0442,-0.23144,-0.32908,0.1638,0.19616,-0.27634,0.26162,0.17166,0.19926,0.19324,-0.01092,-0.19864
0.94,0.0442,-0.2363,-0.3347,0.1638,0.19616,-0.2816,0.26662,0.17166,0.19926,0.19324,-0.01092,-0.19864
0.942,0.05224,-0.2363,-0.34034,0.1638,0.20452,-0.28688,0.26662,0.17376,0.20286,0.19496,-0.01528,-0.20236
0.944,0.03616,-0.24118,-0.3347,0.17126,0.19616,-0.28688,0.27658,0.18004,0.20646,0.19838,-0.01092,-0.19864
0.946,0.0442,-0.22656,-0.32346,0.15636,0.18782,-0.27108,0.26662,0.17794,0.20646,0.2001,-0.00874,-0.19864
0.948,0.02812,-0.2363,-0.32346,0.17126,0.17946,-0.27634,0.26662,0.17166,0.20466,0.19666,-0.0131,-0.20236
0.95,0.004,-0.2363,-0.3122,0.18614,0.15442,-0.27108,0.26162,0.17166,0.20106,0.19496,-0.01748,-0.20978
0.952,0.02812,-0.2363,-0.32346,0.17126,0.17946,-0.27634,0.26162,0.16956,0.19926,0.19496,-0.01528,-0.2135
0.954,0.06832,-0.2363,-0.35158,0.15636,0.21286,-0.29214,0.25664,0.16748,0.19748,0.19324,-0.01748,-0.20978
0.956,0.0442,-0.24606,-0.34596,0.17126,0.20452,-0.29214,0.26662,0.17166,0.20286,0.19496,-0.0131,-0.20606
0.958,0.05224,-0.24118,-0.34596,0.1638,0.20452,-0.29214,0.26662,0.17376,0.20286,0.19496,-0.01092,-0.19864
0.96,0.03616,-0.24606,-0.34034,0.1787,0.19616,-0.29214,0.26662,0.17376,0.20286,0.19496,-0.01092,-0.20236
0.962,0.0442,-0.25092,-0.35158,0.1787,0.20452,-0.2974,0.26662,0.17166,0.20106,0.19496,-0.0131,-0.20606
0.964,0.0442,-0.25092,-0.35158,0.1787,0.20452,-0.2974,0.26662,0.17166,0.20286,0.19666,-0.01528,-0.20236
0.966,0.03616,-0.24118,-0.3347,0.17126,0.19616,-0.28688,0.26662,0.17376,0.20466,0.19838,-0.01092,-0.20606
0.968,0.02008,-0.24606,-0.32908,0.18614,0.17946,-0.28688,0.26662,0.17376,0.20286,0.19666,-0.0131,-0.20606
0.97,-0.0201,-0.27042,-0.32908,0.22338,0.16276,-0.2974,0.26162,0.16956,0.19926,0.19666,-0.01528,-0.2172
0.972,-0.00402,-0.27042,-0.34034,0.21594,0.17946,-0.30266,0.26162,0.17166,0.19926,0.19666,-0.0131,-0.2172
0.974,0.05224,-0.24606,-0.35158,0.17126,0.20452,-0.2974,0.26662,0.17166,0.19926,0.19838,-0.01092,-0.20606
0.976,0.06832,-0.22656,-0.34034,0.14892,0.20452,-0.2816,0.26662,0.17376,0.20106,0.19838,-0.00874,-0.20236
0.978,0.06028,-0.2363,-0.34596,0.15636,0.20452,-0.28688,0.26662,0.17166,0.20106,0.19496,-0.00874,-0.20236
0.98,0.06028,-0.22656,-0.3347,0.14892,0.20452,-0.27634,0.26662,0.16956,0.20106,0.19496,-0.01092,-0.20606
0.982,0.05224,-0.22656,-0.32908,0.15636,0.19616,-0.27634,0.26162,0.16748,0.19748,0.19152,-0.01528,-0.2135
0.984,0.02812,-0.2217,-0.3122,0.1638,0.17112,-0.26056,0.26662,0.16538,0.19568,0.18808,-0.01966,-0.2172
0.986,-0.0201,-0.22656,-0.28408,0.18614,0.12102,-0.2553,0.26662,0.16538,0.19568,0.1898,-0.01748,-0.2172
0.988,-0.01206,-0.25092,-0.31784,0.20104,0.15442,-0.2816,0.26162,0.16328,0.19568,0.1898,-0.02184,-0.2172
0.99,-0.00402,-0.2558,-0.32346,0.20104,0.16276,-0.28688,0.26162,0.1612,0.19388,0.18808,-0.02402,-0.22464
0.992,-0.0201,-0.26068,-0.31784,0.21594,0.15442,-0.28688,0.26662,0.1612,0.19388,0.18808,-0.02402,-0.22464
0.994,0.004,-0.26068,-0.3347,0.20104,0.17946,-0.2974,0.26662,0.1612,0.19388,0.18808,-0.02402,-0.22464
0.996,0.06832,-0.23144,-0.34596,0.14892,0.21286,-0.28688,0.26662,0.16328,0.19388,0.18808,-0.02184,-0.2172
0.998,0.08442,-0.2217,-0.34596,0.13402,0.2212,-0.2816,0.26662,0.1612,0.19388,0.18636,-0.01966,-0.2135
1.0,0.05224,-0.23144,-0.3347,0.15636,0.20452,-0.2816,0.2716,0.1612,0.19388,0.18636,-0.02184,-0.2135
1.002,0.0442,-0.2363,-0.3347,0.1638,0.19616,-0.2816,0.26662,0.16328,0.19568,0.1898,-0.02184,-0.20606
1.004,0.03616,-0.22656,-0.31784,0.1638,0.17946,-0.27108,0.26662,0.16328,0.19568,0.19152,-0.01966,-0.20236
1.006,0.02812,-0.2217,-0.3122,0.1638,0.17112,-0.26056,0.2716,0.16748,0.19926,0.19496,-0.0131,-0.19864
1.008,0.02812,-0.23144,-0.31784,0.17126,0.17946,-0.27108,0.2716,0.16538,0.19748,0.19324,-0.01966,-0.20236
1.01,-0.00402,-0.25092,-0.31784,0.20104,0.16276,-0.2816,0.26662,0.157,0.1885,0.18636,-0.02622,-0.2172
1.012,0.004,-0.26554,-0.34034,0.20848,0.17946,-0.30266,0.26162,0.15282,0.1867,0.1812,-0.03058,-0.22464
1.014,0.02008,-0.2558,-0.34034,0.1936,0.18782,-0.2974,0.26662,0.1591,0.1903,0.18292,-0.0284,-0.2172
1.016,0.02008,-0.24118,-0.32346,0.1787,0.17946,-0.2816,0.26162,0.1591,0.1885,0.1812,-0.02622,-0.2172
1.018,0.02008,-0.2363,-0.31784,0.1787,0.17112,-0.27634,0.25664,0.157,0.1867,0.17778,-0.03058,-0.2172
1.02,0.01204,-0.23144,-0.3122,0.1787,0.16276,-0.26582,0.25166,0.15492,0.1849,0.1795,-0.03276,-0.22464
1.022,0.004,-0.2363,-0.3122,0.18614,0.15442,-0.27108,0.24668,0.15492,0.1867,0.1812,-0.03058,-0.22464
1.024,0.01204,-0.2363,-0.31784,0.1787,0.16276,-0.27108,0.25166,0.15492,0.1867,0.18292,-0.0284,-0.22092
1.026,0.0442,-0.23144,-0.32908,0.1638,0.19616,-0.27634,0.25664,0.157,0.1885,0.18292,-0.02402,-0.2172
1.028,0.05224,-0.2363,-0.34034,0.1638,0.20452,-0.28688,0.26662,0.1591,0.1885,0.18464,-0.02402,-0.2172
1.03,0.06028,-0.2363,-0.34596,0.15636,0.20452,-0.28688,0.26662,0.1591,0.1885,0.18292,-0.02622,-0.22092
1.032,0.06832,-0.24606,-0.36284,0.1638,0.2212,-0.30266,0.25664,0.157,0.1849,0.1795,-0.02622,-0.22092
1.034,0.03616,-0.25092,-0.34596,0.1787,0.20452,-0.2974,0.26162,0.157,0.1849,0.1795,-0.02402,-0.22092
1.036,0.02008,-0.24606,-0.32908,0.18614,0.17946,-0.28688,0.26162,0.157,0.1849,0.17778,-0.02622,-0.22092
1.038,0.004,-0.25092,-0.32346,0.1936,0.17112,-0.28688,0.25664,0.15492,0.18312,0.17434,-0.03058,-0.22464
1.04,0.004,-0.25092,-0.32346,0.1936,0.17112,-0.28688,0.26162,0.157,0.18312,0.17606,-0.03058,-0.22834
1.042,0.02008,-0.24606,-0.32908,0.18614,0.17946,-0.28688,0.26162,0.157,0.1849,0.1795,-0.0284,-0.22092
1.044,0.03616,-0.2363,-0.32908,0.17126,0.18782,-0.2816,0.25166,0.15492,0.18312,0.1795,-0.0284,-0.22464
1.046,0.03616,-0.24118,-0.3347,0.17126,0.19616,-0.28688,0.25166,0.15282,0.18312,0.17778,-0.03058,-0.22464
1.048,0.02008,-0.24606,-0.32908,0.18614,0.17946,-0.28688,0.25664,0.15072,0.18312,0.17778,-0.03276,-0.22464
1.05,0.01204,-0.24606,-0.32346,0.18614,0.17112,-0.2816,0.25166,0.15282,0.18132,0.17778,-0.03276,-0.22464
1.052,0.02008,-0.25092,-0.3347,0.18614,0.18782,-0.29214,0.25166,0.15282,0.18132,0.17778,-0.03058,-0.22092
1.054,0.02812,-0.24606,-0.3347,0.1787,0.18782,-0.28688,0.24668,0.15072,0.17952,0.17434,-0.03058,-0.22092
1.056,0.02008,-0.25092,-0.3347,0.18614,0.18782,-0.29214,0.2367,0.14654,0.17592,0.1709,-0.03276,-0.22464
1.058,0.02008,-0.24606,-0.32908,0.18614,0.17946,-0.28688,0.2417,0.14654,0.17592,0.16918,-0.03276,-0.22464
1.06,0.03616,-0.23144,-0.32346,0.1638,0.18782,-0.27634,0.2417,0.14864,0.17772,0.1709,-0.03276,-0.22092
1.062,0.03616,-0.23144,-0.32346,0.1638,0.18782,-0.27634,0.24668,0.15072,0.17952,0.1709,-0.03276,-0.22092
1.064,0.01204,-0.22656,-0.30658,0.17126,0.15442,-0.26056,0.25166,0.157,0.18312,0.17778,-0.0284,-0.2172
1.066,0.02812,-0.23144,-0.31784,0.17126,0.17946,-0.27108,0.24668,0.1591,0.1849,0.1795,-0.0284,-0.2172
1.068,0.03616,-0.23144,-0.32346,0.1638,0.18782,-0.27634,0.24668,0.15282,0.18132,0.17434,-0.03494,-0.22092
1.07,0.01204,-0.2363,-0.31784,0.1787,0.16276,-0.27108,0.25664,0.15282,0.18132,0.17434,-0.03494,-0.22464
1.072,0.01204,-0.2558,-0.3347,0.1936,0.17946,-0.29214,0.25166,0.14864,0.17772,0.1709,-0.03714,-0.22834
1.074,0.01204,-0.2558,-0.3347,0.1936,0.17946,-0.29214,0.2417,0.14444,0.17414,0.16746,-0.03932,-0.22834
1.076,0.02008,-0.26068,-0.34596,0.1936,0.19616,-0.30266,0.2417,0.14864,0.17772,0.1709,-0.03276,-0.22092
1.078,0.02008,-0.26554,-0.35158,0.20104,0.19616,-0.30792,0.24668,0.14864,0.17772,0.1709,-0.03276,-0.2172
1.08,0.01204,-0.27528,-0.3572,0.20848,0.19616,-0.3132,0.24668,0.14864,0.17772,0.16918,-0.03714,-0.22464
1.082,0.02008,-0.27528,-0.36284,0.20848,0.20452,-0.31846,0.2367,0.14654,0.17414,0.16918,-0.03714,-0.22092
1.084,0.02812,-0.27042,-0.36284,0.20104,0.20452,-0.3132,0.24668,0.14864,0.17772,0.1709,-0.03494,-0.22092
1.086,0.03616,-0.2558,-0.35158,0.18614,0.20452,-0.30266,0.25166,0.15072,0.17952,0.17262,-0.03276,-0.22092
1.088,0.03616,-0.24118,-0.3347,0.17126,0.19616,-0.28688,0.24668,0.15072,0.17952,0.17262,-0.03494,-0.22464
1.09,0.01204,-0.24118,-0.31784,0.18614,0.17112,-0.27634,0.25166,0.15072,0.17952,0.17262,-0.03494,-0.23206
1.092,0.02008,-0.24118,-0.32346,0.1787,0.17946,-0.2816,0.2417,0.14654,0.17592,0.1709,-0.03494,-0.23578
1.094,0.03616,-0.2363,-0.32908,0.17126,0.18782,-0.2816,0.23172,0.14444,0.17414,0.1709,-0.03276,-0.23206
1.096,0.02008,-0.25092,-0.3347,0.18614,0.18782,-0.29214,0.22674,0.14234,0.17414,0.16918,-0.03494,-0.23578
1.098,0.004,-0.26554,-0.34034,0.20848,0.17946,-0.30266,0.22674,0.14234,0.17414,0.16746,-0.03714,-0.23948
1.1,0.02812,-0.2558,-0.34596,0.18614,0.19616,-0.2974,0.22176,0.14444,0.17414,0.16746,-0.03494,-0.23206
1.102,0.02812,-0.2558,-0.34596,0.18614,0.19616,-0.2974,0.22674,0.14654,0.17772,0.17262,-0.03494,-0.22834
1.104,0.02008,-0.2558,-0.34034,0.1936,0.18782,-0.2974,0.23172,0.14864,0.17772,0.17434,-0.03276,-0.22834
1.106,0.01204,-0.26068,-0.34034,0.20104,0.18782,-0.2974,0.22674,0.14654,0.17592,0.1709,-0.03714,-0.23578
1.108,0.06028,-0.24118,-0.35158,0.1638,0.21286,-0.29214,0.23172,0.14864,0.17592,0.1709,-0.03714,-0.23206
1.11,0.06832,-0.21682,-0.32908,0.14146,0.20452,-0.27108,0.2367,0.15072,0.17772,0.17262,-0.03494,-0.23206
1.112,0.0442,-0.23144,-0.32908,0.1638,0.19616,-0.27634,0.2367,0.14654,0.17592,0.17262,-0.03714,-0.23578
1.114,0.0442,-0.24606,-0.34596,0.17126,0.20452,-0.29214,0.2367,0.14654,0.17414,0.1709,-0.03714,-0.23948
1.116,0.0442,-0.24118,-0.34034,0.17126,0.20452,-0.28688,0.2417,0.14864,0.17592,0.1709,-0.03494,-0.23948
1.118,0.004,-0.25092,-0.32346,0.1936,0.17112,-0.28688,0.24668,0.15072,0.17592,0.1709,-0.03494,-0.23578
1.12,0.01204,-0.26068,-0.34034,0.20104,0.18782,-0.2974,0.2417,0.14864,0.17414,0.16918,-0.03714,-0.23948
1.122,0.05224,-0.2558,-0.36284,0.1787,0.21286,-0.30792,0.2417,0.15072,0.17592,0.16918,-0.03714,-0.23578
1.124,0.06028,-0.2558,-0.36846,0.17126,0.2212,-0.30792,0.2367,0.15072,0.17592,0.1709,-0.03276,-0.23206
1.126,0.0442,-0.25092,-0.35158,0.1787,0.20452,-0.2974,0.24668,0.15282,0.17772,0.17262,-0.03058,-0.22834
1.128,0.03616,-0.24606,-0.34034,0.1787,0.19616,-0.29214,0.24668,0.15282,0.17772,0.17262,-0.03058,-0.23206
1.13,0.01204,-0.25092,-0.32908,0.1936,0.17946,-0.28688,0.25166,0.15492,0.17952,0.17434,-0.03058,-0.23206
1.132,0.02008,-0.24118,-0.32346,0.1787,0.17946,-0.2816,0.24668,0.15492,0.17952,0.17262,-0.03058,-0.22834
1.134,0.02812,-0.22656,-0.31784,0.1638,0.17112,-0.26582,0.25166,0.15282,0.17772,0.1709,-0.0284,-0.22834
1.136,0.03616,-0.2217,-0.31784,0.15636,0.17946,-0.26582,0.24668,0.15072,0.17772,0.16918,-0.0284,-0.22834
1.138,0.03616,-0.2217,-0.31784,0.15636,0.17946,-0.26582,0.2417,0.15072,0.17772,0.17262,-0.0284,-0.22834
1.14,0.02008,-0.22656,-0.3122,0.17126,0.16276,-0.26582,0.24668,0.15492,0.18312,0.17778,-0.02402,-0.22464
1.142,0.02812,-0.21682,-0.30658,0.15636,0.16276,-0.2553,0.25664,0.1612,0.1867,0.1795,-0.02622,-0.22834
1.144,0.05224,-0.2022,-0.30658,0.13402,0.17946,-0.2553,0.26162,0.16538,0.1885,0.18292,-0.02184,-0.22092
1.146,0.06832,-0.19734,-0.3122,0.12658,0.18782,-0.2553,0.26162,0.16328,0.1903,0.18636,-0.01748,-0.2135
1.148,0.06028,-0.19734,-0.30658,0.12658,0.17946,-0.25002,0.26662,0.16328,0.19208,0.18636,-0.01748,-0.2172
1.15,0.0442,-0.19734,-0.29534,0.13402,0.16276,-0.24476,0.26662,0.16538,0.19208,0.18636,-0.01966,-0.2172
1.152,0.05224,-0.18758,-0.28408,0.12658,0.16276,-0.23424,0.26662,0.16538,0.19388,0.18808,-0.01966,-0.2172
1.154,0.06832,-0.17784,-0.28408,0.11168,0.17112,-0.22898,0.26662,0.16328,0.19208,0.18464,-0.01966,-0.2135
1.156,0.07636,-0.17784,-0.2897,0.11168,0.17946,-0.22898,0.26662,0.16538,0.19568,0.18808,-0.01528,-0.20978
1.158,0.05224,-0.17784,-0.27284,0.11912,0.15442,-0.2237,0.2716,0.16538,0.19568,0.18636,-0.01748,-0.2135
1.16,0.0442,-0.17296,-0.26158,0.11912,0.13772,-0.21318,0.27658,0.16328,0.19388,0.18808,-0.01748,-0.2172
1.162,0.06028,-0.16322,-0.26158,0.10422,0.14608,-0.20792,0.27658,0.16538,0.19388,0.18808,-0.01748,-0.2172
1.164,0.06028,-0.16322,-0.26158,0.10422,0.14608,-0.20792,0.28156,0.16538,0.19388,0.18636,-0.01966,-0.2172
1.166,0.03616,-0.18272,-0.2672,0.12658,0.13772,-0.2237,0.28156,0.16748,0.19748,0.1898,-0.01528,-0.2172
1.168,0.03616,-0.18272,-0.2672,0.12658,0.13772,-0.2237,0.29152,0.16956,0.19748,0.1898,-0.01748,-0.22092
1.17,0.05224,-0.17296,-0.2672,0.11912,0.14608,-0.21844,0.29652,0.17376,0.20106,0.19152,-0.0131,-0.2135
1.172,0.06028,-0.15836,-0.25596,0.10422,0.14608,-0.20266,0.29652,0.17166,0.20106,0.19496,-0.0131,-0.2135
1.174,0.06028,-0.13398,-0.22784,0.08188,0.12102,-0.17634,0.28654,0.16956,0.20106,0.19324,-0.0131,-0.2172
1.176,0.07636,-0.1145,-0.21658,0.05954,0.12102,-0.16054,0.2716,0.16328,0.19926,0.19324,-0.01092,-0.2172
1.178,0.07636,-0.09502,-0.19408,0.04466,0.10434,-0.13948,0.26662,0.157,0.19568,0.1898,-0.0131,-0.2172
1.18,0.06028,-0.09502,-0.18284,0.0521,0.08764,-0.13422,0.26662,0.15282,0.19208,0.1898,-0.01528,-0.2172
1.182,0.06028,-0.10476,-0.19408,0.05954,0.09598,-0.14476,0.24668,0.14654,0.1885,0.18808,-0.01748,-0.2172
1.184,0.08442,-0.10476,-0.21096,0.0521,0.12102,-0.15528,0.23172,0.14234,0.18312,0.18292,-0.01966,-0.22092
1.186,0.1005,-0.10476,-0.22784,0.0372,0.14608,-0.16054,0.22176,0.14026,0.18132,0.18292,-0.01966,-0.2172
1.188,0.06832,-0.10962,-0.20534,0.05954,0.11268,-0.15528,0.21678,0.14026,0.18132,0.18464,-0.01528,-0.20978
1.19,0.06832,-0.09014,-0.18284,0.04466,0.09598,-0.13422,0.2068,0.14234,0.18312,0.18636,-0.00874,-0.19492
1.192,0.08442,-0.08526,-0.18846,0.0372,0.10434,-0.13422,0.19684,0.13816,0.18312,0.18636,-0.00874,-0.19492
1.194,0.08442,-0.07552,-0.18284,0.02232,0.10434,-0.1237,0.19186,0.13816,0.18132,0.18808,-0.00436,-0.1875
1.196,0.08442,-0.09014,-0.19408,0.0372,0.11268,-0.13948,0.19186,0.13606,0.18132,0.18636,-0.00656,-0.19122
1.198,0.08442,-0.09988,-0.21096,0.04466,0.12938,-0.15002,0.18688,0.13188,0.17592,0.1795,-0.0131,-0.19864
1.2,0.07636,-0.09988,-0.1997,0.0521,0.11268,-0.14476,0.19186,0.13398,0.17592,0.1795,-0.0131,-0.19864
1.202,0.08442,-0.09014,-0.19408,0.0372,0.11268,-0.13948,0.2068,0.14026,0.17952,0.1812,-0.00874,-0.1875
1.204,0.11658,-0.09014,-0.2222,0.02232,0.15442,-0.15002,0.2118,0.14234,0.18132,0.18292,-0.01092,-0.19492
1.206,0.1005,-0.10962,-0.23346,0.04466,0.15442,-0.1658,0.2118,0.14234,0.18132,0.18292,-0.01528,-0.19864
1.208,0.08442,-0.12912,-0.2447,0.067,0.15442,-0.1816,0.21678,0.14444,0.1849,0.18464,-0.0131,-0.19492
1.21,0.09246,-0.14374,-0.2672,0.07444,0.17112,-0.20266,0.21678,0.14654,0.1885,0.1898,-0.00874,-0.19122
1.212,0.12462,-0.15348,-0.30096,0.067,0.20452,-0.2237,0.21678,0.15072,0.1903,0.1898,-0.00436,-0.1838
1.214,0.13266,-0.17296,-0.32346,0.07444,0.22956,-0.24476,0.21678,0.14864,0.1885,0.18808,-0.00656,-0.1838
1.216,0.11658,-0.17296,-0.31784,0.08188,0.21286,-0.2395,0.22176,0.15072,0.1885,0.18808,-0.00436,-0.1838
1.218,0.1005,-0.18272,-0.31784,0.09678,0.20452,-0.24476,0.22674,0.14864,0.1885,0.18464,-0.00436,-0.1838
1.22,0.10854,-0.19734,-0.3347,0.10422,0.22956,-0.26056,0.21678,0.14444,0.1849,0.18292,-0.00874,-0.1838
1.222,0.12462,-0.17784,-0.32346,0.08188,0.22956,-0.25002,0.2118,0.14234,0.18312,0.1812,-0.00874,-0.1875
1.224,0.14874,-0.15348,-0.31784,0.0521,0.22956,-0.22898,0.2118,0.14444,0.18132,0.18464,-0.00874,-0.1838
1.226,0.12462,-0.14374,-0.2897,0.05954,0.20452,-0.21318,0.2068,0.14234,0.18132,0.18464,-0.00874,-0.1875
1.228,0.09246,-0.15348,-0.27846,0.08188,0.17946,-0.21318,0.20182,0.13816,0.17592,0.17778,-0.01528,-0.19122
1.23,0.1005,-0.15836,-0.2897,0.08188,0.19616,-0.21844,0.19684,0.13398,0.17234,0.17434,-0.01966,-0.19864
1.232,0.08442,-0.17784,-0.29534,0.10422,0.18782,-0.23424,0.20182,0.13606,0.17414,0.17434,-0.02184,-0.20606
1.234,0.07636,-0.18758,-0.30096,0.11912,0.18782,-0.2395,0.2118,0.14026,0.17592,0.17606,-0.02184,-0.20606
1.236,0.07636,-0.19246,-0.30658,0.11912,0.18782,-0.24476,0.22176,0.14234,0.17592,0.17778,-0.02184,-0.2135
1.238,0.06832,-0.19734,-0.3122,0.12658,0.18782,-0.2553,0.22176,0.14444,0.17592,0.17434,-0.02402,-0.22464
1.24,0.07636,-0.20708,-0.32346,0.12658,0.20452,-0.26056,0.22674,0.14234,0.17414,0.17262,-0.02622,-0.22834
1.242,0.0442,-0.2217,-0.31784,0.15636,0.18782,-0.26582,0.2367,0.14444,0.17772,0.17434,-0.02402,-0.22834
1.244,0.004,-0.24118,-0.31784,0.18614,0.16276,-0.27634,0.2417,0.14864,0.17952,0.17778,-0.02402,-0.22834
1.246,-0.0201,-0.26554,-0.32346,0.21594,0.15442,-0.29214,0.25166,0.14864,0.18132,0.1795,-0.02402,-0.22834
1.248,0.03616,-0.2558,-0.35158,0.18614,0.20452,-0.30266,0.25664,0.14864,0.17772,0.17606,-0.02622,-0.22834
1.25,0.02812,-0.26554,-0.3572,0.1936,0.20452,-0.30792,0.25166,0.14654,0.17414,0.17434,-0.0284,-0.22834
1.252,0.01204,-0.27528,-0.3572,0.20848,0.19616,-0.3132,0.2417,0.14654,0.17414,0.17262,-0.0284,-0.22834
1.254,0.004,-0.27528,-0.35158,0.21594,0.18782,-0.3132,0.2417,0.14654,0.17414,0.1709,-0.0284,-0.23206
1.256,0.05224,-0.26068,-0.36846,0.1787,0.2212,-0.3132,0.2367,0.14654,0.17414,0.1709,-0.02622,-0.22834
1.258,0.06832,-0.24606,-0.36284,0.1638,0.2212,-0.30266,0.2417,0.14654,0.17414,0.16918,-0.0284,-0.22834
1.26,0.07636,-0.24118,-0.36284,0.15636,0.22956,-0.2974,0.2367,0.14444,0.17234,0.16746,-0.03276,-0.23948
1.262,0.05224,-0.25092,-0.3572,0.17126,0.21286,-0.30266,0.23172,0.14654,0.17414,0.16746,-0.03276,-0.23948
1.264,0.02812,-0.24118,-0.32908,0.1787,0.18782,-0.2816,0.2367,0.14864,0.17414,0.16918,-0.03058,-0.23578
1.266,0.03616,-0.24118,-0.3347,0.17126,0.19616,-0.28688,0.23172,0.14654,0.17414,0.16918,-0.03276,-0.23948
1.268,0.0442,-0.2363,-0.3347,0.1638,0.19616,-0.2816,0.2367,0.14444,0.17234,0.16746,-0.03494,-0.2432
1.27,0.02008,-0.2558,-0.34034,0.1936,0.18782,-0.2974,0.23172,0.14026,0.17054,0.16746,-0.03932,-0.2469
1.272,0.01204,-0.26068,-0.34034,0.20104,0.18782,-0.2974,0.23172,0.14026,0.16874,0.16574,-0.03932,-0.25062
1.274,0.01204,-0.26554,-0.34596,0.20104,0.18782,-0.30266,0.23172,0.13816,0.16874,0.16404,-0.03932,-0.25062
1.276,0.01204,-0.27042,-0.35158,0.20848,0.19616,-0.30792,0.23172,0.14026,0.16874,0.16746,-0.03714,-0.2432
1.278,0.02812,-0.26068,-0.35158,0.1936,0.20452,-0.30266,0.24668,0.14444,0.17234,0.16746,-0.03494,-0.2432
1.28,-0.00402,-0.26554,-0.3347,0.20848,0.17112,-0.2974,0.24668,0.14654,0.17414,0.16918,-0.03494,-0.2432
1.282,0.004,-0.26554,-0.34034,0.20848,0.17946,-0.30266,0.24668,0.14654,0.17234,0.16574,-0.03714,-0.25062
1.284,0.02812,-0.2558,-0.34596,0.18614,0.19616,-0.2974,0.2417,0.14444,0.17234,0.16746,-0.03714,-0.25062
1.286,0.03616,-0.2558,-0.35158,0.18614,0.20452,-0.30266,0.2417,0.14444,0.17414,0.17262,-0.03494,-0.2469
1.288,0.06028,-0.24606,-0.3572,0.1638,0.21286,-0.2974,0.24668,0.14654,0.17414,0.17262,-0.03494,-0.2469
1.29,0.02812,-0.25092,-0.34034,0.18614,0.19616,-0.29214,0.24668,0.14444,0.17414,0.1709,-0.03714,-0.25062
1.292,0.01204,-0.25092,-0.32908,0.1936,0.17946,-0.28688,0.24668,0.14444,0.17234,0.16746,-0.03932,-0.25804
1.294,0.02008,-0.2558,-0.34034,0.1936,0.18782,-0.2974,0.24668,0.14654,0.17414,0.16918,-0.03714,-0.25434
1.296,0.004,-0.26554,-0.34034,0.20848,0.17946,-0.30266,0.26662,0.15492,0.18132,0.17434,-0.03494,-0.25804
1.298,0.03616,-0.27042,-0.36846,0.1936,0.21286,-0.31846,0.28654,0.16748,0.19388,0.1795,-0.03494,-0.26918
1.3,0.02812,-0.29478,-0.39096,0.21594,0.2212,-0.3395,0.32142,0.18422,0.21364,0.19324,-0.03714,-0.27662
1.302,-0.01206,-0.32402,-0.39658,0.26062,0.20452,-0.36056,0.37624,0.21144,0.23518,0.21042,-0.03494,-0.28404
1.304,-0.03618,-0.35324,-0.41346,0.2904,0.20452,-0.38162,0.43106,0.24076,0.2621,0.2293,-0.0284,-0.29518
1.306,-0.03618,-0.38736,-0.45284,0.32018,0.2379,-0.41846,0.47094,0.27216,0.29264,0.25336,-0.02184,-0.2989
1.308,-0.00402,-0.37274,-0.45846,0.2904,0.2546,-0.4132,0.49586,0.291,0.31598,0.27912,-0.00436,-0.28776
1.31,0.03616,-0.31426,-0.41908,0.23082,0.24626,-0.36582,0.50084,0.31612,0.35906,0.3341,0.03494,-0.25062
1.312,0.09246,-0.26068,-0.4022,0.15636,0.2713,-0.32898,0.52576,0.358,0.4237,0.40108,0.08954,-0.20606
1.314,0.13266,-0.2022,-0.36284,0.10422,0.26294,-0.27634,0.55566,0.3936,0.47756,0.46808,0.14852,-0.16152
1.316,0.12462,-0.15836,-0.30658,0.067,0.21286,-0.22898,0.58058,0.40196,0.4973,0.51618,0.20314,-0.11324
1.318,0.19698,-0.07552,-0.26158,-0.0298,0.21286,-0.16054,0.55566,0.36428,0.4578,0.5179,0.24246,-0.0724
1.32,0.21306,-0.00244,-0.18284,-0.09682,0.17112,-0.08158,0.49586,0.29518,0.37162,0.4887,0.27304,-0.02784
1.322,0.21306,0.06576,-0.10408,-0.14894,0.11268,-0.01316,0.43106,0.2261,0.29084,0.46292,0.31672,0.0464
1.324,0.22914,0.15834,-0.01408,-0.21596,0.05424,0.08156,0.34136,0.15282,0.20824,0.44232,0.36916,0.12064
1.326,0.30152,0.26066,0.05902,-0.33512,0.03754,0.17104,0.26162,0.08164,0.13104,0.42342,0.42594,0.20604
1.328,0.3578,0.38734,0.16028,-0.45426,-0.01252,0.28684,0.18688,0.00836,0.06102,0.3925,0.46746,0.2803
1.33,0.30152,0.4799,0.31216,-0.49894,-0.1461,0.40266,0.08222,-0.08374,-0.0431,0.31004,0.45434,0.30258
1.332,0.2613,0.56274,0.43028,-0.54362,-0.26296,0.50792,-0.0274,-0.1696,-0.14902,0.20354,0.41066,0.30258
1.334,0.20502,0.6553,0.58216,-0.5883,-0.40488,0.62372,-0.12708,-0.24706,-0.24776,0.08674,0.34294,0.27288
1.336,0.08442,0.64556,0.65528,-0.52128,-0.52176,0.6553,-0.17192,-0.32034,-0.34652,-0.06956,0.1944,0.18376
1.338,-0.13268,0.50914,0.64402,-0.32022,-0.62194,0.58162,-0.16694,-0.38524,-0.45424,-0.2946,-0.06772,-0.0167
1.34,-0.31762,0.29476,0.53152,-0.07448,-0.63864,0.40792,-0.14202,-0.41456,-0.54222,-0.52306,-0.3648,-0.26176
1.342,-0.36586,0.05114,0.28402,0.13402,-0.48002,0.16578,-0.10714,-0.39572,-0.56018,-0.6141,-0.50898,-0.39172
1.344,-0.3337,-0.13886,0.04216,0.26806,-0.27966,-0.05,-0.12208,-0.38106,-0.56196,-0.63816,-0.56796,-0.46226
1.346,-0.36586,-0.27042,-0.09284,0.38722,-0.19618,-0.18686,-0.147,-0.38734,-0.57454,-0.6519,-0.60728,-0.51796
1.348,-0.38194,-0.35812,-0.1772,0.45424,-0.13774,-0.27108,-0.19186,-0.402,-0.58352,-0.65534,-0.62912,-0.56622
1.35,-0.38194,-0.35324,-0.17158,0.44678,-0.1461,-0.26582,-0.25166,-0.41664,-0.5925,-0.64846,-0.64004,-0.60334
1.352,-0.39802,-0.34838,-0.1547,0.45424,-0.16278,-0.2553,-0.32144,-0.4355,-0.59968,-0.64502,-0.64878,-0.63306
1.354,-0.4141,-0.36298,-0.16034,0.46912,-0.17114,-0.26582,-0.38124,-0.44178,-0.59428,-0.62784,-0.64004,-0.6442
1.356,-0.38998,-0.37274,-0.18846,0.46912,-0.13774,-0.28688,-0.45598,-0.43968,-0.57812,-0.60036,-0.62256,-0.64048
1.358,-0.34978,-0.36786,-0.21096,0.44678,-0.10436,-0.29214,-0.5108,-0.42502,-0.5512,-0.56944,-0.6029,-0.6442
1.36,-0.36586,-0.34838,-0.1772,0.43934,-0.13774,-0.26582,-0.53074,-0.39362,-0.5099,-0.52478,-0.5767,-0.6479
1.362,-0.31762,-0.42634,-0.30658,0.47658,-0.02088,-0.3711,-0.46098,-0.32452,-0.43628,-0.45606,-0.52864,-0.62192
1.364,-0.26132,-0.52864,-0.45846,0.5287,0.12938,-0.49742,-0.36628,-0.25544,-0.36268,-0.3908,-0.48276,-0.59222
1.366,-0.25328,-0.59686,-0.54846,0.58082,0.19616,-0.57638,-0.28156,-0.2031,-0.30164,-0.32896,-0.44562,-0.57736
1.368,-0.26132,-0.65534,-0.6047,0.63296,0.22956,-0.63954,-0.22176,-0.16332,-0.25316,-0.27398,-0.4063,-0.56622
1.37,-0.22916,-0.65046,-0.6272,0.61062,0.2713,-0.6448,-0.22674,-0.15284,-0.22264,-0.2362,-0.37572,-0.54766
1.372,-0.18092,-0.64558,-0.65534,0.58082,0.31304,-0.65534,-0.22176,-0.12772,-0.19212,-0.19668,-0.34296,-0.51796
1.374,-0.16484,-0.6261,-0.64408,0.55848,0.31304,-0.63954,-0.20182,-0.0984,-0.14902,-0.1503,-0.30364,-0.48824
1.376,-0.14072,-0.58712,-0.61034,0.5138,0.30468,-0.6027,-0.17192,-0.0691,-0.10594,-0.10564,-0.26432,-0.45854
1.378,-0.10856,-0.54326,-0.5822,0.46912,0.29634,-0.56584,-0.11212,-0.0314,-0.06104,-0.0627,-0.23154,-0.43256
1.38,-0.08442,-0.4848,-0.5372,0.417,0.2713,-0.50794,-0.04236,0.01044,-0.00898,-0.0146,-0.19004,-0.39542
1.382,-0.03618,-0.43608,-0.5147,0.35742,0.27964,-0.4711,0.04234,0.0586,0.04486,0.0352,-0.15072,-0.35458
1.384,-0.01206,-0.3776,-0.45846,0.29784,0.2546,-0.41846,0.0872,0.09628,0.09514,0.08674,-0.10922,-0.31746
1.386,0.004,-0.31914,-0.4022,0.24572,0.2212,-0.36056,0.13206,0.11514,0.13284,0.12796,-0.07864,-0.28404
1.388,0.02812,-0.28016,-0.37408,0.20848,0.21286,-0.32372,0.19186,0.14026,0.16156,0.15716,-0.0568,-0.26548
1.39,0.0442,-0.27042,-0.37408,0.1936,0.2212,-0.31846,0.2367,0.1612,0.1849,0.1812,-0.03932,-0.25062
1.392,0.03616,-0.29478,-0.39658,0.21594,0.22956,-0.34478,0.26662,0.17376,0.19926,0.19324,-0.03058,-0.23948
1.394,0.004,-0.3094,-0.39096,0.23828,0.21286,-0.35004,0.28156,0.18214,0.21004,0.20526,-0.01966,-0.23206
1.396,0.03616,-0.3094,-0.41346,0.22338,0.24626,-0.36056,0.28156,0.18214,0.21542,0.21042,-0.0131,-0.22834
1.398,0.06028,-0.30452,-0.4247,0.20848,0.26294,-0.36056,0.29152,0.18422,0.21902,0.21212,-0.00874,-0.22464
1.4,0.07636,-0.2899,-0.41908,0.1936,0.2713,-0.35004,0.28654,0.18842,0.22262,0.219,-0.00436,-0.22092
1.402,0.08442,-0.28016,-0.41346,0.1787,0.2713,-0.34478,0.28156,0.1926,0.2262,0.22072,-0.00436,-0.22092
1.404,0.06832,-0.27528,-0.39658,0.18614,0.24626,-0.33424,0.28156,0.1905,0.228,0.22416,-0.00436,-0.22092
1.406,0.06028,-0.27528,-0.39096,0.18614,0.2379,-0.32898,0.27658,0.1905,0.23158,0.2276,-0.00436,-0.22464
1.408,0.06832,-0.26554,-0.38534,0.1787,0.2379,-0.32372,0.28156,0.1947,0.23518,0.2293,0.0,-0.22092
1.41,0.07636,-0.26554,-0.39096,0.17126,0.24626,-0.32372,0.29152,0.19888,0.24056,0.2379,0.00654,-0.2135
1.412,0.07636,-0.27528,-0.4022,0.1787,0.2546,-0.33424,0.31146,0.20516,0.24596,0.24476,0.01528,-0.20236
1.414,0.08442,-0.27528,-0.40784,0.1787,0.26294,-0.3395,0.32642,0.20934,0.25314,0.25508,0.02402,-0.19122
1.416,0.09246,-0.28016,-0.4247,0.17126,0.288,-0.35004,0.32142,0.20934,0.25672,0.2568,0.0262,-0.1875
1.418,0.1005,-0.28016,-0.43034,0.17126,0.29634,-0.35004,0.32642,0.21144,0.26032,0.25852,0.02838,-0.1838
1.42,0.09246,-0.27042,-0.41346,0.1638,0.27964,-0.3395,0.32642,0.21354,0.2621,0.26022,0.03274,-0.1838
1.422,0.10854,-0.26068,-0.41346,0.14892,0.288,-0.33424,0.32142,0.21354,0.2657,0.26022,0.03056,-0.1838
1.424,0.13266,-0.24118,-0.40784,0.12658,0.29634,-0.31846,0.31644,0.21144,0.2657,0.26194,0.03056,-0.1838
1.426,0.10854,-0.23144,-0.3797,0.12658,0.26294,-0.30266,0.31146,0.21354,0.2693,0.26538,0.03056,-0.1838
1.428,0.08442,-0.2363,-0.36284,0.14892,0.22956,-0.2974,0.32642,0.21772,0.27468,0.27054,0.03494,-0.1875
1.43,0.08442,-0.25092,-0.38534,0.15636,0.2546,-0.3132,0.32642,0.21982,0.27648,0.27398,0.03274,-0.19122
1.432,0.09246,-0.26068,-0.4022,0.15636,0.2713,-0.32898,0.32642,0.21982,0.27468,0.27568,0.03056,-0.19492
1.434,0.1005,-0.2558,-0.4022,0.14892,0.2713,-0.32372,0.33638,0.22192,0.27826,0.2774,0.0393,-0.1838
1.436,0.10854,-0.24606,-0.39658,0.14146,0.2713,-0.31846,0.34136,0.2261,0.28186,0.28084,0.04366,-0.18008
1.438,0.10854,-0.25092,-0.4022,0.14146,0.27964,-0.32372,0.34136,0.224,0.28186,0.27912,0.04586,-0.1838
1.44,0.1005,-0.24606,-0.39096,0.14146,0.26294,-0.3132,0.33638,0.224,0.28366,0.28084,0.04804,-0.18008
1.442,0.09246,-0.24118,-0.3797,0.14146,0.2546,-0.30792,0.33638,0.22192,0.28366,0.27912,0.04586,-0.1838
1.444,0.08442,-0.2363,-0.36284,0.14892,0.22956,-0.2974,0.33638,0.21982,0.28544,0.28084,0.04586,-0.1838
1.446,0.08442,-0.2363,-0.36846,0.14146,0.2379,-0.2974,0.34136,0.2261,0.28904,0.28428,0.04586,-0.1838
1.448,0.08442,-0.24606,-0.37408,0.15636,0.2379,-0.30792,0.34136,0.2261,0.29084,0.28772,0.04804,-0.1838
1.45,0.08442,-0.24606,-0.3797,0.14892,0.24626,-0.30792,0.34634,0.2282,0.29442,0.29286,0.05022,-0.18008
1.452,0.08442,-0.25092,-0.3797,0.15636,0.24626,-0.3132,0.34634,0.2282,0.29264,0.29286,0.04804,-0.1838
1.454,0.08442,-0.25092,-0.38534,0.15636,0.2546,-0.3132,0.35134,0.23238,0.29442,0.2963,0.0546,-0.17636
1.456,0.08442,-0.25092,-0.38534,0.15636,0.2546,-0.3132,0.35632,0.23448,0.29622,0.29974,0.05896,-0.16894
1.458,0.09246,-0.25092,-0.39096,0.14892,0.26294,-0.31846,0.35632,0.23656,0.29622,0.29974,0.06114,-0.16894
1.46,0.09246,-0.24606,-0.38534,0.14892,0.2546,-0.3132,0.3613,0.23656,0.29982,0.30146,0.06332,-0.16152
1.462,0.08442,-0.23144,-0.36284,0.14146,0.2379,-0.29214,0.3613,0.23866,0.3034,0.30318,0.06552,-0.16152
1.464,0.11658,-0.21682,-0.36846,0.11912,0.2546,-0.28688,0.35632,0.23866,0.3052,0.3049,0.06552,-0.16152
1.466,0.12462,-0.20708,-0.36284,0.11168,0.2546,-0.2816,0.34634,0.23866,0.3034,0.3049,0.06114,-0.16894
1.468,0.1005,-0.2217,-0.36284,0.12658,0.24626,-0.28688,0.35134,0.23866,0.3052,0.3066,0.06114,-0.17266
1.47,0.10854,-0.23144,-0.3797,0.12658,0.26294,-0.30266,0.3613,0.24076,0.3088,0.31176,0.06332,-0.16894
1.472,0.1005,-0.24606,-0.39096,0.14146,0.26294,-0.3132,0.36628,0.24494,0.31058,0.31348,0.06552,-0.16522
1.474,0.08442,-0.2558,-0.39096,0.15636,0.2546,-0.31846,0.37624,0.24912,0.31598,0.32036,0.07206,-0.1578
1.476,0.08442,-0.24606,-0.3797,0.14892,0.24626,-0.30792,0.37624,0.25122,0.31776,0.32036,0.07426,-0.1578
1.478,0.10854,-0.2363,-0.38534,0.13402,0.26294,-0.30792,0.37624,0.25332,0.31956,0.32206,0.0808,-0.14666
1.48,0.13266,-0.2363,-0.4022,0.12658,0.288,-0.3132,0.36628,0.2554,0.32316,0.3255,0.08518,-0.14666
1.482,0.1005,-0.24606,-0.39096,0.14146,0.26294,-0.3132,0.35632,0.25332,0.32316,0.32378,0.0808,-0.15038
1.484,0.1005,-0.24118,-0.38534,0.14146,0.26294,-0.30792,0.3613,0.25122,0.32494,0.3255,0.0808,-0.15038
1.486,0.10854,-0.22656,-0.37408,0.12658,0.2546,-0.2974,0.3613,0.2575,0.32854,0.32894,0.0808,-0.15038
1.488,0.11658,-0.21682,-0.36846,0.11912,0.2546,-0.28688,0.36628,0.2596,0.33392,0.33238,0.08518,-0.14666
1.49,0.13266,-0.2022,-0.36284,0.10422,0.26294,-0.27634,0.37126,0.26378,0.3411,0.34268,0.09172,-0.13552
1.492,0.18894,-0.19246,-0.38534,0.067,0.30468,-0.2816,0.37624,0.26588,0.3429,0.3444,0.09392,-0.13552
1.494,0.17286,-0.19734,-0.3797,0.07444,0.29634,-0.2816,0.37624,0.26588,0.3429,0.34612,0.0961,-0.13552
1.496,0.12462,-0.21194,-0.36846,0.11168,0.26294,-0.28688,0.37624,0.26588,0.3429,0.34612,0.09828,-0.13924
1.498,0.11658,-0.21682,-0.36846,0.11912,0.2546,-0.28688,0.38622,0.27216,0.3465,0.34956,0.10484,-0.1318
1.5,0.10854,-0.23144,-0.3797,0.12658,0.26294,-0.30266,0.38622,0.27216,0.34828,0.35128,0.10484,-0.1318
1.502,0.13266,-0.21682,-0.3797,0.11168,0.2713,-0.29214,0.3912,0.27426,0.35188,0.35128,0.10264,-0.1281
1.504,0.17286,-0.18758,-0.36846,0.067,0.288,-0.27108,0.39618,0.27844,0.35906,0.35986,0.1092,-0.11696
1.506,0.1809,-0.19734,-0.38534,0.07444,0.30468,-0.2816,0.39618,0.28262,0.36086,0.35986,0.10702,-0.12068
1.508,0.16482,-0.19734,-0.3797,0.08188,0.288,-0.2816,0.40116,0.28262,0.36444,0.36502,0.1092,-0.12438
1.51,0.15678,-0.19734,-0.37408,0.08934,0.27964,-0.2816,0.41114,0.28472,0.36804,0.37016,0.11138,-0.12438
1.512,0.15678,-0.2022,-0.3797,0.08934,0.288,-0.28688,0.41612,0.2889,0.37342,0.37532,0.11358,-0.12438
1.514,0.15678,-0.20708,-0.38534,0.09678,0.288,-0.29214,0.4211,0.2931,0.37702,0.38048,0.11794,-0.12068
1.516,0.1809,-0.20708,-0.4022,0.08188,0.31304,-0.2974,0.41612,0.29938,0.3806,0.3839,0.12012,-0.11696
1.518,0.1809,-0.20708,-0.4022,0.08188,0.31304,-0.2974,0.4211,0.30148,0.3824,0.38562,0.1245,-0.10954
1.52,0.14874,-0.21194,-0.38534,0.10422,0.288,-0.29214,0.4211,0.30566,0.38778,0.38906,0.12886,-0.1021
1.522,0.16482,-0.20708,-0.39096,0.08934,0.29634,-0.29214,0.41612,0.30984,0.39318,0.3925,0.13324,-0.1021
1.524,0.19698,-0.19734,-0.4022,0.067,0.32138,-0.29214,0.41612,0.31194,0.40036,0.39936,0.1376,-0.0984
1.526,0.20502,-0.19734,-0.4022,0.05954,0.32974,-0.29214,0.41612,0.31612,0.40574,0.4028,0.13324,-0.1021
1.528,0.19698,-0.19734,-0.39658,0.067,0.32138,-0.28688,0.4211,0.31822,0.40934,0.40624,0.13542,-0.1021
1.53,0.19698,-0.19734,-0.39658,0.067,0.32138,-0.28688,0.42608,0.3245,0.41652,0.41654,0.14196,-0.0984
1.532,0.2211,-0.18272,-0.39658,0.04466,0.32974,-0.2816,0.44104,0.33078,0.4219,0.42342,0.1507,-0.09468
1.534,0.20502,-0.19246,-0.39658,0.05954,0.32138,-0.28688,0.45598,0.33706,0.42728,0.43028,0.15726,-0.08726
1.536,0.20502,-0.19246,-0.39658,0.05954,0.32138,-0.28688,0.46096,0.34334,0.43446,0.43544,0.16382,-0.08354
1.538,0.22914,-0.18272,-0.4022,0.0372,0.33808,-0.2816,0.46596,0.34754,0.43986,0.43888,0.17036,-0.0724
1.54,0.23718,-0.18758,-0.41346,0.0372,0.35478,-0.29214,0.46596,0.35172,0.44344,0.44404,0.17474,-0.06868
1.542,0.22914,-0.18758,-0.40784,0.04466,0.34642,-0.28688,0.47094,0.35382,0.44884,0.44574,0.17692,-0.06868
1.544,0.21306,-0.19734,-0.40784,0.05954,0.33808,-0.29214,0.47094,0.3601,0.45602,0.45262,0.18128,-0.06498
1.546,0.23718,-0.18272,-0.40784,0.0372,0.34642,-0.28688,0.46596,0.36638,0.4632,0.4595,0.18348,-0.06498
1.548,0.2613,-0.15836,-0.39658,0.00742,0.35478,-0.26582,0.48588,0.37476,0.47396,0.4698,0.19222,-0.05756
1.55,0.2613,-0.15836,-0.39658,0.00742,0.35478,-0.26582,0.4809,0.38104,0.48116,0.4801,0.19658,-0.05012
1.552,0.25326,-0.17296,-0.40784,0.02232,0.35478,-0.2816,0.49088,0.38732,0.48834,0.48698,0.20094,-0.04642
1.554,0.26936,-0.18272,-0.43034,0.02232,0.37982,-0.2974,0.50084,0.39568,0.4973,0.49728,0.20968,-0.03528
1.556,0.2774,-0.18272,-0.43596,0.01486,0.38816,-0.2974,0.50582,0.40196,0.5027,0.50072,0.21624,-0.03156
1.558,0.2774,-0.17784,-0.43034,0.01486,0.38816,-0.29214,0.51578,0.40616,0.50988,0.50588,0.2228,-0.02414
1.56,0.28544,-0.17784,-0.43596,0.00742,0.39652,-0.2974,0.52078,0.41244,0.51706,0.51446,0.23154,-0.0167
1.562,0.28544,-0.17784,-0.43596,0.00742,0.39652,-0.2974,0.52576,0.41872,0.52424,0.52134,0.2359,-0.013
1.564,0.30152,-0.17296,-0.44158,0.0,0.40486,-0.2974,0.53074,0.425,0.53322,0.5282,0.23808,-0.00928
1.566,0.33368,-0.15836,-0.4472,-0.0298,0.42992,-0.29214,0.52576,0.43128,0.5404,0.5368,0.24464,-0.00558
1.568,0.3176,-0.14374,-0.41908,-0.0298,0.39652,-0.27108,0.53572,0.43756,0.55296,0.54882,0.25556,0.00184
1.57,0.28544,-0.1486,-0.4022,-0.0149,0.37148,-0.26582,0.55068,0.44594,0.56194,0.56084,0.2643,0.00926
1.572,0.33368,-0.14374,-0.43034,-0.03724,0.41322,-0.27634,0.55068,0.45012,0.56734,0.56772,0.27086,0.01298
1.574,0.33368,-0.1486,-0.43596,-0.03724,0.42156,-0.2816,0.55068,0.45432,0.57452,0.57458,0.27958,0.0204
1.576,0.32564,-0.14374,-0.4247,-0.03724,0.40486,-0.27108,0.56064,0.46688,0.58528,0.58318,0.29052,0.03526
1.578,0.38192,-0.1145,-0.43034,-0.08192,0.43826,-0.26056,0.5706,0.47524,0.59426,0.5952,0.3058,0.05752
1.58,0.38192,-0.10476,-0.41908,-0.08936,0.42992,-0.2553,0.58058,0.48362,0.60324,0.60206,0.31236,0.06496
1.582,0.398,-0.09988,-0.4247,-0.10426,0.4466,-0.2553,0.5756,0.48362,0.60504,0.6055,0.31454,0.06496
1.584,0.40604,-0.09502,-0.4247,-0.1117,0.4466,-0.25002,0.5756,0.48572,0.61042,0.61238,0.3189,0.07238
1.586,0.40604,-0.0804,-0.41346,-0.1266,0.4466,-0.2395,0.58058,0.492,0.6176,0.62096,0.32764,0.0798
1.588,0.41408,-0.07064,-0.40784,-0.13406,0.4466,-0.22898,0.58556,0.49828,0.62298,0.62956,0.33638,0.08724
1.59,0.41408,-0.07064,-0.40784,-0.13406,0.4466,-0.22898,0.59054,0.50246,0.63018,0.63986,0.34512,0.09466
1.592,0.40604,-0.07552,-0.40784,-0.1266,0.43826,-0.23424,0.59054,0.50456,0.63196,0.6433,0.35168,0.10208
1.594,0.41408,-0.07552,-0.41346,-0.13406,0.4466,-0.23424,0.59054,0.50666,0.63736,0.64672,0.36042,0.11322
1.596,0.42212,-0.07552,-0.41908,-0.13406,0.45496,-0.2395,0.59054,0.50874,0.63736,0.65016,0.36916,0.11694
1.598,0.40604,-0.07552,-0.40784,-0.1266,0.43826,-0.23424,0.6005,0.50874,0.63736,0.65188,0.3757,0.12808
1.6,0.40604,-0.07064,-0.4022,-0.13406,0.43826,-0.22898,0.59552,0.50874,0.63736,0.6536,0.38226,0.1355
1.602,0.41408,-0.05116,-0.38534,-0.14894,0.42992,-0.20792,0.58556,0.50456,0.63376,0.6536,0.38444,0.13922
1.604,0.42212,-0.03654,-0.37408,-0.16384,0.42156,-0.19738,0.5756,0.50038,0.63018,0.6536,0.38662,0.14664
1.606,0.44624,-0.0073,-0.3572,-0.19362,0.42156,-0.17108,0.56562,0.49828,0.62838,0.6536,0.391,0.15778
1.608,0.43016,-0.00244,-0.3347,-0.19362,0.39652,-0.15528,0.56064,0.492,0.62298,0.65532,0.39536,0.1615
1.61,0.44624,0.01216,-0.32908,-0.20852,0.40486,-0.14476,0.56064,0.48782,0.6176,0.65532,0.39974,0.16892
1.612,0.47038,0.03166,-0.32346,-0.2383,0.41322,-0.13422,0.55068,0.47734,0.60682,0.64844,0.39974,0.17262
1.614,0.47038,0.04626,-0.3122,-0.24576,0.39652,-0.11844,0.5407,0.46896,0.59606,0.64502,0.40192,0.18376
1.616,0.47842,0.05114,-0.3122,-0.2532,0.40486,-0.11318,0.51578,0.4564,0.5817,0.63126,0.39754,0.18006
1.618,0.44624,0.05114,-0.2897,-0.2383,0.37148,-0.10264,0.50084,0.43966,0.56374,0.6158,0.38882,0.17634
1.62,0.44624,0.07062,-0.2672,-0.2532,0.35478,-0.08158,0.49088,0.42918,0.54758,0.60206,0.38226,0.17634
1.622,0.46234,0.095,-0.25034,-0.28298,0.34642,-0.06054,0.47592,0.41244,0.52784,0.5866,0.3757,0.16892
1.624,0.42212,0.095,-0.2222,-0.26064,0.30468,-0.05,0.46596,0.39568,0.51346,0.57114,0.3626,0.15778
1.626,0.398,0.09012,-0.20534,-0.24576,0.27964,-0.04474,0.44602,0.37894,0.49372,0.55396,0.34512,0.14292
1.628,0.36584,0.09012,-0.18284,-0.23086,0.24626,-0.03948,0.4211,0.36218,0.47396,0.53164,0.32546,0.12436
1.63,0.34976,0.095,-0.16596,-0.22342,0.2212,-0.02896,0.40116,0.34334,0.45062,0.5093,0.30362,0.10952
1.632,0.33368,0.095,-0.1547,-0.21596,0.20452,-0.02368,0.38124,0.3266,0.43088,0.4887,0.28832,0.09094
1.634,0.32564,0.09986,-0.14346,-0.21596,0.20452,-0.01316,0.36628,0.31404,0.41292,0.47152,0.27304,0.0798
1.636,0.30956,0.095,-0.13784,-0.20852,0.18782,-0.01316,0.35632,0.30148,0.39498,0.44574,0.25556,0.06124
1.638,0.30956,0.09012,-0.14346,-0.20108,0.19616,-0.01842,0.35134,0.28682,0.37522,0.43028,0.23808,0.0464
1.64,0.28544,0.06576,-0.1547,-0.17874,0.18782,-0.03948,0.3314,0.27006,0.35726,0.40452,0.20968,0.0204
1.642,0.25326,0.0414,-0.16034,-0.14894,0.17946,-0.05,0.31644,0.2554,0.33752,0.38048,0.19002,-0.00558
1.644,0.22914,0.0219,-0.16596,-0.11916,0.17112,-0.06054,0.31644,0.24704,0.32316,0.36502,0.17256,-0.02414
1.646,0.2211,0.00242,-0.18284,-0.10426,0.17946,-0.08158,0.31146,0.23448,0.31058,0.34784,0.1529,-0.03528
1.648,0.20502,-0.01706,-0.1997,-0.07448,0.17946,-0.10264,0.3015,0.224,0.29622,0.33066,0.13104,-0.06126
1.65,0.14874,-0.04142,-0.18846,-0.0298,0.14608,-0.1079,0.28654,0.21354,0.28544,0.31348,0.11576,-0.07982
1.652,0.10854,-0.0609,-0.18284,0.0,0.12102,-0.11844,0.28654,0.20726,0.27468,0.30146,0.10702,-0.0984
1.654,0.08442,-0.0804,-0.18284,0.02976,0.10434,-0.12896,0.28156,0.20098,0.2639,0.29114,0.09172,-0.11696
1.656,0.08442,-0.09502,-0.20534,0.0372,0.12102,-0.14476,0.2716,0.1926,0.25134,0.27568,0.07862,-0.1318
1.658,0.1005,-0.10962,-0.23346,0.04466,0.15442,-0.1658,0.27658,0.1905,0.24236,0.26538,0.06988,-0.13924
1.66,0.10854,-0.11938,-0.25034,0.04466,0.17112,-0.1816,0.2716,0.18632,0.23876,0.25508,0.06332,-0.13924
1.662,0.12462,-0.11938,-0.26158,0.0372,0.18782,-0.18686,0.26662,0.18214,0.23158,0.2482,0.0524,-0.15038
1.664,0.10854,-0.12424,-0.25596,0.0521,0.17112,-0.18686,0.26662,0.18004,0.2262,0.24306,0.04148,-0.16152
1.666,0.11658,-0.12424,-0.26158,0.04466,0.17946,-0.18686,0.26662,0.17794,0.22262,0.23446,0.03274,-0.16894
1.668,0.09246,-0.13886,-0.26158,0.067,0.17112,-0.19738,0.26662,0.17584,0.22262,0.23102,0.0262,-0.17636
1.67,0.06028,-0.1681,-0.2672,0.11168,0.15442,-0.21318,0.26662,0.17376,0.21902,0.2276,0.02182,-0.1838
1.672,0.0442,-0.18272,-0.27284,0.12658,0.14608,-0.2237,0.26162,0.16748,0.21184,0.22244,0.01528,-0.19122
1.674,0.05224,-0.18758,-0.28408,0.12658,0.16276,-0.23424,0.26662,0.16956,0.21184,0.22072,0.01964,-0.1838
1.676,0.06028,-0.19734,-0.30096,0.12658,0.17946,-0.24476,0.25664,0.16748,0.20824,0.21556,0.01528,-0.19122
1.678,0.06028,-0.2022,-0.3122,0.13402,0.18782,-0.2553,0.25166,0.16538,0.20286,0.2087,0.00872,-0.19864
1.68,0.05224,-0.2022,-0.30658,0.13402,0.17946,-0.2553,0.25166,0.16328,0.19926,0.20354,0.00436,-0.20236
1.682,0.05224,-0.19734,-0.29534,0.12658,0.17112,-0.24476,0.25664,0.1612,0.19748,0.2001,0.0,-0.20978
1.684,0.06832,-0.19734,-0.30658,0.12658,0.18782,-0.25002,0.25664,0.16748,0.19926,0.20182,0.0,-0.20978
1.686,0.05224,-0.2022,-0.30658,0.13402,0.17946,-0.2553,0.24668,0.16328,0.19748,0.19838,-0.00874,-0.2172
1.688,0.03616,-0.20708,-0.30096,0.14892,0.16276,-0.2553,0.2417,0.1612,0.19568,0.19838,-0.01092,-0.22464
1.69,0.0442,-0.20708,-0.30658,0.14146,0.17112,-0.2553,0.2417,0.1591,0.19568,0.19838,-0.01092,-0.22464
1.692,0.03616,-0.21194,-0.30658,0.14892,0.17112,-0.2553,0.2417,0.157,0.19388,0.19666,-0.01092,-0.23206
1.694,0.02008,-0.22656,-0.3122,0.17126,0.16276,-0.26582,0.25166,0.1612,0.19388,0.19666,-0.00874,-0.22464
1.696,0.02008,-0.2363,-0.31784,0.1787,0.17112,-0.27634,0.25166,0.1612,0.19388,0.19666,-0.00436,-0.22092
1.698,0.02008,-0.23144,-0.31784,0.17126,0.17112,-0.27108,0.25166,0.16328,0.19388,0.19496,-0.00436,-0.22092
1.7,0.06832,-0.21194,-0.32346,0.13402,0.20452,-0.26582,0.24668,0.1612,0.19208,0.18808,-0.01092,-0.22464
1.702,0.07636,-0.20708,-0.32346,0.12658,0.20452,-0.26056,0.25166,0.1591,0.19208,0.18636,-0.0131,-0.23206
1.704,0.0442,-0.21682,-0.31784,0.14892,0.17946,-0.26056,0.25166,0.16328,0.19208,0.18808,-0.0131,-0.22834
1.706,0.0442,-0.21194,-0.3122,0.14892,0.17946,-0.2553,0.25664,0.1612,0.19208,0.18636,-0.01528,-0.22834
1.708,0.06028,-0.20708,-0.31784,0.13402,0.18782,-0.2553,0.26162,0.16328,0.19388,0.18808,-0.01528,-0.22834
1.71,0.05224,-0.21194,-0.31784,0.14146,0.18782,-0.26056,0.25664,0.16328,0.19568,0.19324,-0.01528,-0.22834
1.712,0.0442,-0.21194,-0.3122,0.14892,0.17946,-0.2553,0.25664,0.1612,0.19568,0.19496,-0.0131,-0.23206
1.714,0.06028,-0.21194,-0.31784,0.14146,0.19616,-0.26056,0.25664,0.16328,0.19568,0.19666,-0.01092,-0.23206
1.716,0.07636,-0.21682,-0.3347,0.13402,0.20452,-0.27108,0.26162,0.1612,0.19388,0.19152,-0.0131,-0.23578
1.718,0.06832,-0.21682,-0.32908,0.14146,0.20452,-0.27108,0.25664,0.1612,0.19388,0.19324,-0.0131,-0.22834
1.72,0.01204,-0.2217,-0.30096,0.17126,0.15442,-0.2553,0.26162,0.16328,0.19568,0.19324,-0.0131,-0.22464
1.722,0.02812,-0.2217,-0.3122,0.1638,0.17112,-0.26056,0.26162,0.16538,0.19748,0.19152,-0.0131,-0.22834
1.724,0.03616,-0.23144,-0.32346,0.1638,0.18782,-0.27634,0.25664,0.16748,0.19748,0.19324,-0.01528,-0.22464
1.726,0.03616,-0.2363,-0.32908,0.17126,0.18782,-0.2816,0.25166,0.16328,0.19568,0.1898,-0.01748,-0.22834
1.728,0.03616,-0.2363,-0.32908,0.17126,0.18782,-0.2816,0.25166,0.16538,0.19748,0.19324,-0.01528,-0.22834
1.73,0.02812,-0.25092,-0.34034,0.18614,0.19616,-0.29214,0.25664,0.16538,0.19926,0.19324,-0.01528,-0.22834
1.732,0.02812,-0.24606,-0.3347,0.1787,0.18782,-0.28688,0.26162,0.16538,0.19926,0.19496,-0.0131,-0.22834
1.734,0.02008,-0.24118,-0.32346,0.1787,0.17946,-0.2816,0.26662,0.16956,0.20106,0.19838,-0.00436,-0.22092
1.736,0.0442,-0.23144,-0.32908,0.1638,0.19616,-0.27634,0.26162,0.16748,0.20106,0.19666,-0.00436,-0.22092
1.738,0.05224,-0.2217,-0.32346,0.14892,0.19616,-0.27108,0.26662,0.17166,0.20286,0.19838,-0.00436,-0.22092
1.74,0.06028,-0.21194,-0.31784,0.14146,0.19616,-0.26056,0.26162,0.16956,0.20106,0.19666,-0.00436,-0.22092
1.742,0.06028,-0.2022,-0.3122,0.13402,0.18782,-0.2553,0.25664,0.16748,0.20106,0.19666,-0.00656,-0.22464
1.744,0.0442,-0.20708,-0.30658,0.14146,0.17112,-0.2553,0.26662,0.16956,0.20286,0.19838,-0.00656,-0.22092
1.746,0.03616,-0.21682,-0.3122,0.15636,0.17112,-0.26056,0.26162,0.16748,0.20106,0.19496,-0.01092,-0.22834
1.748,0.05224,-0.21682,-0.31784,0.14892,0.18782,-0.26582,0.26662,0.16956,0.20286,0.19838,-0.00874,-0.22834
1.75,0.0442,-0.21682,-0.31784,0.14892,0.17946,-0.26056,0.26662,0.16956,0.20286,0.19838,-0.00656,-0.22092
1.752,0.03616,-0.2217,-0.31784,0.15636,0.17946,-0.26582,0.25664,0.16748,0.20106,0.19838,-0.00656,-0.22464
1.754,0.02008,-0.22656,-0.3122,0.17126,0.16276,-0.26582,0.25664,0.16748,0.19926,0.19666,-0.00874,-0.22092
1.756,0.05224,-0.2217,-0.32346,0.14892,0.19616,-0.27108,0.25664,0.16748,0.19926,0.19666,-0.00656,-0.22092
1.758,0.06832,-0.21682,-0.32908,0.14146,0.20452,-0.27108,0.25664,0.16748,0.20106,0.19666,-0.00436,-0.2135
1.76,0.0442,-0.2217,-0.31784,0.15636,0.18782,-0.26582,0.26162,0.16956,0.20106,0.19666,-0.00656,-0.2135
1.762,0.02812,-0.2217,-0.3122,0.1638,0.17112,-0.26056,0.25664,0.16748,0.20106,0.19666,-0.00656,-0.22092
1.764,0.02812,-0.22656,-0.31784,0.1638,0.17112,-0.26582,0.26162,0.16956,0.20286,0.19666,-0.00874,-0.2172
1.766,0.05224,-0.21682,-0.31784,0.14892,0.18782,-0.26582,0.26162,0.17166,0.20286,0.19666,-0.00874,-0.22092
1.768,0.06028,-0.2022,-0.3122,0.13402,0.18782,-0.2553,0.26662,0.17376,0.20646,0.20182,-0.00656,-0.22092
1.77,0.06028,-0.21194,-0.31784,0.14146,0.19616,-0.26056,0.26662,0.17166,0.20466,0.20182,-0.00874,-0.22092
1.772,0.03616,-0.21682,-0.3122,0.15636,0.17112,-0.26056,0.26162,0.16748,0.20286,0.2001,-0.00874,-0.22834
1.774,0.0442,-0.21682,-0.31784,0.14892,0.17946,-0.26056,0.26662,0.16748,0.20286,0.2001,-0.00656,-0.22092
1.776,0.06028,-0.21682,-0.32346,0.14146,0.19616,-0.26582,0.26162,0.16748,0.20106,0.2001,-0.00656,-0.22464
1.778,0.06028,-0.21194,-0.31784,0.14146,0.19616,-0.26056,0.26662,0.16748,0.20106,0.19838,-0.00656,-0.22092
1.78,0.0442,-0.21682,-0.31784,0.14892,0.17946,-0.26056,0.26162,0.16748,0.20286,0.19838,-0.00874,-0.22092
1.782,0.05224,-0.21194,-0.31784,0.14146,0.18782,-0.26056,0.25664,0.16748,0.20466,0.19666,-0.00874,-0.22464
1.784,0.03616,-0.2217,-0.31784,0.15636,0.17946,-0.26582,0.26162,0.16956,0.20466,0.19838,-0.00874,-0.2172
1.786,0.03616,-0.2217,-0.31784,0.15636,0.17946,-0.26582,0.26162,0.16956,0.20466,0.19666,-0.00656,-0.22092
1.788,0.05224,-0.20708,-0.3122,0.14146,0.17946,-0.2553,0.25664,0.16956,0.20466,0.19838,-0.00436,-0.22092
1.79,0.06832,-0.20708,-0.31784,0.13402,0.19616,-0.26056,0.25166,0.16748,0.20286,0.19838,-0.00656,-0.22092
1.792,0.06028,-0.19734,-0.30658,0.12658,0.17946,-0.25002,0.25166,0.16538,0.20286,0.19838,-0.00656,-0.22834
1.794,0.0442,-0.19734,-0.29534,0.13402,0.16276,-0.24476,0.26162,0.16748,0.20286,0.19838,-0.00436,-0.22464
1.796,0.05224,-0.19734,-0.30096,0.13402,0.17112,-0.25002,0.26162,0.16538,0.20106,0.19838,-0.00436,-0.22464
1.798,0.06028,-0.2022,-0.3122,0.13402,0.18782,-0.2553,0.26662,0.16538,0.20106,0.19666,-0.00436,-0.22092
1.8,0.06832,-0.21194,-0.32346,0.13402,0.20452,-0.26582,0.26162,0.16328,0.19926,0.19324,-0.00874,-0.22834
1.802,0.06028,-0.2022,-0.3122,0.13402,0.18782,-0.2553,0.25664,0.1612,0.19748,0.19496,-0.01092,-0.23206
1.804,0.0442,-0.19734,-0.29534,0.13402,0.16276,-0.24476,0.26662,0.16956,0.20466,0.2001,-0.00436,-0.2135
1.806,0.06028,-0.2022,-0.3122,0.13402,0.18782,-0.2553,0.26162,0.16748,0.20286,0.2001,-0.00874,-0.22092
1.808,0.06028,-0.20708,-0.31784,0.13402,0.18782,-0.2553,0.25166,0.16538,0.20106,0.19666,-0.00874,-0.22464
1.81,0.06028,-0.20708,-0.31784,0.13402,0.18782,-0.2553,0.25166,0.16538,0.19926,0.19838,-0.00874,-0.22092
1.812,0.03616,-0.20708,-0.30096,0.14892,0.16276,-0.2553,0.25166,0.16538,0.19926,0.19838,-0.00874,-0.22464
1.814,0.02812,-0.20708,-0.29534,0.14892,0.15442,-0.25002,0.25664,0.16328,0.19926,0.19838,-0.00874,-0.22464
1.816,0.03616,-0.20708,-0.30096,0.14892,0.16276,-0.2553,0.25166,0.16328,0.19926,0.19666,-0.00874,-0.22834
1.818,0.03616,-0.2022,-0.29534,0.14146,0.16276,-0.25002,0.24668,0.16328,0.19568,0.19496,-0.00874,-0.23206
1.82,0.03616,-0.20708,-0.30096,0.14892,0.16276,-0.2553,0.2417,0.1612,0.19388,0.19152,-0.01092,-0.23578
1.822,0.02008,-0.20708,-0.2897,0.15636,0.14608,-0.25002,0.2417,0.1591,0.19208,0.19152,-0.01528,-0.23578
1.824,0.02812,-0.20708,-0.29534,0.14892,0.15442,-0.25002,0.24668,0.1591,0.19388,0.19324,-0.01528,-0.22834
1.826,0.0442,-0.2022,-0.30096,0.14146,0.17112,-0.25002,0.24668,0.1591,0.19388,0.19324,-0.01528,-0.23206
1.828,0.0442,-0.19246,-0.28408,0.12658,0.15442,-0.23424,0.25166,0.1612,0.19568,0.19496,-0.0131,-0.22834
1.83,0.0442,-0.2022,-0.30096,0.14146,0.17112,-0.25002,0.24668,0.1591,0.19388,0.19324,-0.01528,-0.23206
1.832,0.05224,-0.21682,-0.31784,0.14892,0.18782,-0.26582,0.24668,0.157,0.19208,0.19324,-0.01528,-0.23206
1.834,0.05224,-0.21682,-0.31784,0.14892,0.18782,-0.26582,0.24668,0.157,0.19208,0.19496,-0.01092,-0.22092
1.836,0.0442,-0.2217,-0.31784,0.15636,0.18782,-0.26582,0.24668,0.157,0.1903,0.1898,-0.0131,-0.22464
1.838,0.0442,-0.20708,-0.30658,0.14146,0.17112,-0.2553,0.24668,0.157,0.1903,0.1898,-0.01528,-0.22464
1.84,0.0442,-0.20708,-0.30658,0.14146,0.17112,-0.2553,0.2367,0.15492,0.1885,0.18636,-0.01528,-0.23206
1.842,0.06028,-0.2022,-0.3122,0.13402,0.18782,-0.2553,0.23172,0.15282,0.1867,0.18636,-0.01748,-0.23948
1.844,0.06028,-0.20708,-0.31784,0.13402,0.18782,-0.2553,0.2417,0.15492,0.1885,0.18636,-0.01966,-0.23948
1.846,0.03616,-0.2022,-0.29534,0.14146,0.16276,-0.25002,0.24668,0.15492,0.1885,0.18636,-0.02184,-0.23948
1.848,0.02008,-0.2022,-0.28408,0.14892,0.14608,-0.24476,0.25166,0.157,0.1903,0.1898,-0.01748,-0.23578
1.85,0.03616,-0.20708,-0.30096,0.14892,0.16276,-0.2553,0.25166,0.15492,0.1903,0.1898,-0.01748,-0.23206
1.852,0.0442,-0.21194,-0.3122,0.14892,0.17946,-0.2553,0.24668,0.15492,0.1867,0.18636,-0.01966,-0.23948
1.854,0.02008,-0.23144,-0.31784,0.17126,0.17112,-0.27108,0.24668,0.15282,0.1867,0.18636,-0.01966,-0.23948
1.856,0.02008,-0.2363,-0.31784,0.1787,0.17112,-0.27634,0.2417,0.15072,0.18312,0.18292,-0.01966,-0.2432
1.858,0.03616,-0.23144,-0.32346,0.1638,0.18782,-0.27634,0.24668,0.15282,0.1867,0.18464,-0.01528,-0.23206
1.86,0.02812,-0.2363,-0.32346,0.17126,0.17946,-0.27634,0.25166,0.15282,0.1867,0.18464,-0.01528,-0.23206
1.862,0.05224,-0.22656,-0.32908,0.15636,0.19616,-0.27634,0.25166,0.15072,0.1849,0.1812,-0.01748,-0.23948
1.864,0.06832,-0.2217,-0.3347,0.14146,0.20452,-0.27634,0.2417,0.14864,0.1849,0.1812,-0.02184,-0.23948
1.866,0.004,-0.22656,-0.30096,0.1787,0.14608,-0.26056,0.25166,0.15492,0.1885,0.18464,-0.01966,-0.23578
1.868,-0.01206,-0.2217,-0.28408,0.1787,0.12938,-0.2553,0.25166,0.15492,0.1885,0.18636,-0.01966,-0.23578
1.87,0.03616,-0.20708,-0.30096,0.14892,0.16276,-0.2553,0.24668,0.15282,0.1885,0.18636,-0.01966,-0.23948
1.872,0.03616,-0.21194,-0.30658,0.14892,0.17112,-0.2553,0.2417,0.15072,0.1849,0.18636,-0.02184,-0.23948
1.874,0.02008,-0.2217,-0.30658,0.1638,0.16276,-0.26056,0.2367,0.14864,0.1849,0.18636,-0.02184,-0.23948
1.876,0.01204,-0.22656,-0.30658,0.17126,0.15442,-0.26056,0.23172,0.14654,0.18132,0.18292,-0.02184,-0.2432
1.878,0.004,-0.23144,-0.30658,0.1787,0.15442,-0.26582,0.2367,0.14654,0.18132,0.1812,-0.02184,-0.23948
1.88,0.004,-0.2363,-0.3122,0.18614,0.15442,-0.27108,0.23172,0.14654,0.18132,0.1795,-0.02402,-0.23948
1.882,0.02812,-0.23144,-0.31784,0.17126,0.17946,-0.27108,0.22674,0.14654,0.17952,0.17778,-0.0284,-0.2432
1.884,0.05224,-0.21682,-0.31784,0.14892,0.18782,-0.26582,0.22176,0.14654,0.17952,0.1795,-0.0284,-0.2432
1.886,0.0442,-0.21682,-0.31784,0.14892,0.17946,-0.26056,0.22674,0.15072,0.18312,0.1795,-0.0284,-0.2432
1.888,0.004,-0.23144,-0.30658,0.1787,0.15442,-0.26582,0.22176,0.14654,0.18132,0.1795,-0.03058,-0.2469
1.89,0.02008,-0.22656,-0.3122,0.17126,0.16276,-0.26582,0.22674,0.14654,0.17952,0.17778,-0.03276,-0.25062
1.892,0.03616,-0.21682,-0.3122,0.15636,0.17112,-0.26056,0.23172,0.15072,0.17952,0.1812,-0.0284,-0.2469
1.894,0.03616,-0.2217,-0.31784,0.15636,0.17946,-0.26582,0.23172,0.15072,0.18132,0.1812,-0.02622,-0.2432
1.896,0.05224,-0.2217,-0.32346,0.14892,0.19616,-0.27108,0.2367,0.15282,0.18132,0.1812,-0.02402,-0.23948
1.898,0.06028,-0.21194,-0.31784,0.14146,0.19616,-0.26056,0.2367,0.15282,0.18312,0.1812,-0.02184,-0.23578
1.9,0.06028,-0.21682,-0.32346,0.14146,0.19616,-0.26582,0.2367,0.15072,0.18312,0.17778,-0.02402,-0.23578
1.902,0.0442,-0.2217,-0.31784,0.15636,0.18782,-0.26582,0.2367,0.15282,0.18312,0.17778,-0.02402,-0.23578
1.904,0.05224,-0.21682,-0.31784,0.14892,0.18782,-0.26582,0.2367,0.15072,0.18312,0.17606,-0.02402,-0.23206
1.906,0.03616,-0.2217,-0.31784,0.15636,0.17946,-0.26582,0.23172,0.15072,0.18312,0.17606,-0.02622,-0.23578
1.908,0.02812,-0.22656,-0.31784,0.1638,0.17112,-0.26582,0.23172,0.14864,0.18132,0.17606,-0.03058,-0.2432
1.91,0.0442,-0.22656,-0.32346,0.15636,0.18782,-0.27108,0.22176,0.14444,0.17772,0.17434,-0.03276,-0.25062
1.912,0.03616,-0.2217,-0.31784,0.15636,0.17946,-0.26582,0.22176,0.14654,0.17772,0.17606,-0.03058,-0.2469
1.914,0.03616,-0.21682,-0.3122,0.15636,0.17112,-0.26056,0.23172,0.15072,0.18132,0.1812,-0.02622,-0.23948
1.916,0.0442,-0.21682,-0.31784,0.14892,0.17946,-0.26056,0.2417,0.15072,0.18132,0.1795,-0.02402,-0.23948
1.918,0.02812,-0.23144,-0.31784,0.17126,0.17946,-0.27108,0.2417,0.14864,0.17952,0.17778,-0.02622,-0.23948
1.92,0.02812,-0.23144,-0.31784,0.17126,0.17946,-0.27108,0.2417,0.15072,0.18132,0.17434,-0.02402,-0.23578
1.922,0.0442,-0.22656,-0.32346,0.15636,0.18782,-0.27108,0.2367,0.15072,0.18132,0.17606,-0.02402,-0.23206
1.924,0.02812,-0.23144,-0.31784,0.17126,0.17946,-0.27108,0.2367,0.14654,0.17952,0.17434,-0.02402,-0.23578
1.926,0.02812,-0.2363,-0.32346,0.17126,0.17946,-0.27634,0.22674,0.14654,0.17952,0.17606,-0.02622,-0.23948
1.928,0.0442,-0.2217,-0.31784,0.15636,0.18782,-0.26582,0.2367,0.15072,0.18132,0.1795,-0.02622,-0.23948
1.93,0.05224,-0.20708,-0.3122,0.14146,0.17946,-0.2553,0.2417,0.15072,0.18312,0.1812,-0.02402,-0.23948
1.932,0.02008,-0.21194,-0.29534,0.15636,0.15442,-0.2553,0.22674,0.14864,0.17772,0.17606,-0.03058,-0.2432
1.934,0.01204,-0.21682,-0.29534,0.1638,0.14608,-0.2553,0.21678,0.14444,0.17592,0.17262,-0.03494,-0.25062
1.936,0.01204,-0.23144,-0.3122,0.1787,0.16276,-0.26582,0.22674,0.15072,0.17952,0.17606,-0.0284,-0.23948
1.938,0.02008,-0.2363,-0.31784,0.1787,0.17112,-0.27634,0.22674,0.14864,0.17952,0.17778,-0.02622,-0.23206
1.94,0.02812,-0.24118,-0.32908,0.1787,0.18782,-0.2816,0.22674,0.14654,0.17952,0.17434,-0.0284,-0.22834
1.942,0.02008,-0.2363,-0.31784,0.1787,0.17112,-0.27634,0.21678,0.14654,0.17952,0.17434,-0.02622,-0.22834
1.944,0.03616,-0.22656,-0.31784,0.1638,0.17946,-0.27108,0.22674,0.14864,0.18312,0.17434,-0.02402,-0.22464
1.946,0.03616,-0.23144,-0.32346,0.1638,0.18782,-0.27634,0.23172,0.15072,0.18312,0.17606,-0.02402,-0.22464
1.948,0.03616,-0.23144,-0.32346,0.1638,0.18782,-0.27634,0.23172,0.15072,0.18132,0.17778,-0.02402,-0.22464
1.95,0.03616,-0.24118,-0.3347,0.17126,0.19616,-0.28688,0.23172,0.14864,0.17952,0.17606,-0.0284,-0.23206
1.952,-0.00402,-0.24606,-0.31784,0.1936,0.15442,-0.27634,0.22674,0.14864,0.17772,0.17606,-0.0284,-0.23206
1.954,0.004,-0.24606,-0.31784,0.1936,0.16276,-0.2816,0.22176,0.14654,0.17772,0.17606,-0.0284,-0.23578
1.956,0.03616,-0.2363,-0.32908,0.17126,0.18782,-0.2816,0.21678,0.14444,0.17772,0.17606,-0.0284,-0.23578
1.958,0.06028,-0.2217,-0.32908,0.14892,0.20452,-0.27108,0.22674,0.14864,0.17952,0.17778,-0.02622,-0.23206
1.96,0.06832,-0.21194,-0.32346,0.13402,0.20452,-0.26582,0.23172,0.14864,0.17952,0.17778,-0.02622,-0.22834
1.962,0.06028,-0.21682,-0.32346,0.14146,0.19616,-0.26582,0.22674,0.14654,0.17952,0.17434,-0.02622,-0.22834
1.964,0.0442,-0.23144,-0.32908,0.1638,0.19616,-0.27634,0.23172,0.14444,0.17952,0.17434,-0.0284,-0.23206
1.966,0.0442,-0.23144,-0.32908,0.1638,0.19616,-0.27634,0.23172,0.14864,0.18312,0.17606,-0.02402,-0.22464
1.968,0.0442,-0.24118,-0.34034,0.17126,0.20452,-0.28688,0.2367,0.14864,0.18132,0.17778,-0.02622,-0.22834
1.97,0.0442,-0.24118,-0.34034,0.17126,0.20452,-0.28688,0.2367,0.14864,0.18132,0.17778,-0.02622,-0.22834
1.972,0.004,-0.24606,-0.31784,0.1936,0.16276,-0.2816,0.2367,0.14864,0.18132,0.17778,-0.02622,-0.23206
1.974,0.01204,-0.24118,-0.31784,0.18614,0.17112,-0.27634,0.2367,0.14654,0.17952,0.17606,-0.02622,-0.23578
1.976,0.02812,-0.2363,-0.32346,0.17126,0.17946,-0.27634,0.23172,0.14654,0.17952,0.17606,-0.02622,-0.23578
1.978,0.02812,-0.2363,-0.32346,0.17126,0.17946,-0.27634,0.23172,0.14654,0.17772,0.17434,-0.0284,-0.23578
1.98,0.01204,-0.23144,-0.3122,0.1787,0.16276,-0.26582,0.22674,0.14444,0.17592,0.1709,-0.0284,-0.23948
1.982,0.01204,-0.24118,-0.31784,0.18614,0.17112,-0.27634,0.21678,0.14444,0.17592,0.1709,-0.0284,-0.23948
1.984,0.01204,-0.25092,-0.32908,0.1936,0.17946,-0.28688,0.21678,0.14026,0.17592,0.1709,-0.03058,-0.23948
1.986,0.0442,-0.24118,-0.34034,0.17126,0.20452,-0.28688,0.21678,0.14444,0.17772,0.17434,-0.0284,-0.23206
1.988,0.07636,-0.21682,-0.3347,0.13402,0.20452,-0.27108,0.22674,0.14864,0.18132,0.17778,-0.02622,-0.22834
1.99,0.05224,-0.21194,-0.31784,0.14146,0.18782,-0.26056,0.23172,0.14864,0.18132,0.17778,-0.02402,-0.22834
1.992,0.03616,-0.22656,-0.31784,0.1638,0.17946,-0.27108,0.23172,0.14864,0.18132,0.17778,-0.02622,-0.23206
1.994,0.05224,-0.2363,-0.34034,0.1638,0.20452,-0.28688,0.22176,0.14444,0.17772,0.17606,-0.03058,-0.23578
1.996,0.05224,-0.2363,-0.34034,0.1638,0.20452,-0.28688,0.21678,0.14234,0.17592,0.17434,-0.0284,-0.23578
1.998,0.02008,-0.2363,-0.31784,0.1787,0.17112,-0.27634,0.22674,0.14444,0.17592,0.17434,-0.0284,-0.23578
2.0,-0.00402,-0.24118,-0.3122,0.1936,0.15442,-0.27108,0.23172,0.14444,0.17772,0.17434,-0.0284,-0.23206
2.002,0.01204,-0.24118,-0.31784,0.18614,0.17112,-0.27634,0.22674,0.14444,0.17772,0.17434,-0.0284,-0.23206
2.004,0.03616,-0.23144,-0.32346,0.1638,0.18782,-0.27634,0.22176,0.14444,0.17772,0.17262,-0.0284,-0.23578
2.006,0.02812,-0.23144,-0.31784,0.17126,0.17946,-0.27108,0.22674,0.14654,0.17772,0.17262,-0.0284,-0.23206
2.008,0.02008,-0.24118,-0.32346,0.1787,0.17946,-0.2816,0.22674,0.14444,0.17772,0.17434,-0.0284,-0.23948
2.01,0.02812,-0.24118,-0.32908,0.1787,0.18782,-0.2816,0.22674,0.14444,0.17592,0.17434,-0.0284,-0.23948
2.012,0.02812,-0.25092,-0.34034,0.18614,0.19616,-0.29214,0.23172,0.14654,0.17772,0.17434,-0.0284,-0.2432
2.014,0.0442,-0.24606,-0.34596,0.17126,0.20452,-0.29214,0.22674,0.14444,0.17592,0.17434,-0.0284,-0.23948
2.016,0.05224,-0.22656,-0.32908,0.15636,0.19616,-0.27634,0.2367,0.14654,0.17772,0.17606,-0.02622,-0.23578
2.018,0.03616,-0.23144,-0.32346,0.1638,0.18782,-0.27634,0.2367,0.14654,0.17772,0.17606,-0.02622,-0.23578
2.02,0.02008,-0.24118,-0.32346,0.1787,0.17946,-0.2816,0.23172,0.14444,0.17772,0.17434,-0.02622,-0.23578
2.022,0.02812,-0.24118,-0.32908,0.1787,0.18782,-0.2816,0.23172,0.14234,0.17592,0.17262,-0.0284,-0.23578
2.024,0.05224,-0.23144,-0.3347,0.15636,0.20452,-0.2816,0.22176,0.14026,0.17772,0.17434,-0.02622,-0.23206
2.026,0.06832,-0.22656,-0.34034,0.14892,0.20452,-0.2816,0.22176,0.14234,0.17772,0.17434,-0.02622,-0.23206
2.028,0.03616,-0.24118,-0.3347,0.17126,0.19616,-0.28688,0.22176,0.14234,0.17772,0.17262,-0.0284,-0.23578
2.03,0.02008,-0.24606,-0.32908,0.18614,0.17946,-0.28688,0.22674,0.14234,0.17772,0.17434,-0.0284,-0.23206
2.032,0.004,-0.2558,-0.32908,0.20104,0.17112,-0.29214,0.22674,0.14444,0.17772,0.17434,-0.02622,-0.23578
2.034,0.01204,-0.2558,-0.3347,0.1936,0.17946,-0.29214,0.22674,0.14444,0.17772,0.17434,-0.02622,-0.23578
2.036,0.03616,-0.25092,-0.34596,0.1787,0.20452,-0.2974,0.23172,0.14444,0.17772,0.17434,-0.0284,-0.23578
2.038,0.03616,-0.25092,-0.34596,0.1787,0.20452,-0.2974,0.23172,0.14444,0.17592,0.17262,-0.0284,-0.23948
2.04,0.02812,-0.24606,-0.3347,0.1787,0.18782,-0.28688,0.2367,0.14444,0.17772,0.17434,-0.0284,-0.23578
2.042,0.02008,-0.24606,-0.32908,0.18614,0.17946,-0.28688,0.23172,0.14026,0.17772,0.17434,-0.03058,-0.23578
2.044,0.03616,-0.24118,-0.3347,0.17126,0.19616,-0.28688,0.23172,0.14026,0.17772,0.17262,-0.0284,-0.23578
2.046,0.03616,-0.24118,-0.3347,0.17126,0.19616,-0.28688,0.23172,0.14444,0.17772,0.17434,-0.0284,-0.23206
2.048,0.02812,-0.24606,-0.3347,0.1787,0.18782,-0.28688,0.23172,0.14234,0.17772,0.17434,-0.0284,-0.23578
2.05,0.05224,-0.23144,-0.3347,0.15636,0.20452,-0.2816,0.22674,0.14026,0.17592,0.17434,-0.0284,-0.23578
2.052,0.0442,-0.2363,-0.3347,0.1638,0.19616,-0.2816,0.2367,0.14444,0.17772,0.17778,-0.02622,-0.23578
2.054,0.02008,-0.24606,-0.32908,0.18614,0.17946,-0.28688,0.2417,0.14864,0.17952,0.1795,-0.02184,-0.23206
2.056,0.004,-0.2558,-0.32908,0.20104,0.17112,-0.29214,0.2417,0.14864,0.17952,0.17778,-0.02184,-0.23578
2.058,0.02008,-0.26554,-0.35158,0.20104,0.19616,-0.30792,0.23172,0.14444,0.17414,0.17434,-0.02622,-0.2469
2.06,0.02008,-0.26554,-0.35158,0.20104,0.19616,-0.30792,0.22674,0.14234,0.17592,0.17434,-0.02622,-0.2469
2.062,0.02008,-0.25092,-0.3347,0.18614,0.18782,-0.29214,0.22674,0.14234,0.17772,0.17606,-0.02402,-0.23948
2.064,0.02812,-0.24118,-0.32908,0.1787,0.18782,-0.2816,0.22674,0.14234,0.17952,0.17606,-0.02402,-0.23578
2.066,0.03616,-0.2363,-0.32908,0.17126,0.18782,-0.2816,0.22674,0.14234,0.17772,0.17606,-0.02622,-0.23948
2.068,0.06832,-0.2363,-0.35158,0.15636,0.21286,-0.29214,0.22674,0.14444,0.17772,0.17434,-0.02622,-0.23948
2.07,0.06028,-0.22656,-0.3347,0.14892,0.20452,-0.27634,0.22674,0.14654,0.17952,0.17778,-0.02402,-0.23578
2.072,0.02812,-0.2363,-0.32346,0.17126,0.17946,-0.27634,0.22674,0.14444,0.17772,0.17778,-0.02402,-0.23948
2.074,0.02008,-0.24118,-0.32346,0.1787,0.17946,-0.2816,0.22674,0.14444,0.17592,0.17778,-0.02622,-0.2432
2.076,0.0442,-0.22656,-0.32346,0.15636,0.18782,-0.27108,0.2367,0.14444,0.17772,0.17606,-0.02622,-0.2432
2.078,0.05224,-0.22656,-0.32908,0.15636,0.19616,-0.27634,0.2367,0.14444,0.17772,0.17606,-0.0284,-0.2432
2.08,0.02008,-0.2363,-0.31784,0.1787,0.17112,-0.27634,0.23172,0.14444,0.17772,0.17262,-0.03058,-0.2432
2.082,0.01204,-0.24118,-0.31784,0.18614,0.17112,-0.27634,0.22674,0.14234,0.17592,0.17434,-0.03058,-0.2432
2.084,0.02812,-0.23144,-0.31784,0.17126,0.17946,-0.27108,0.22176,0.14234,0.17772,0.17434,-0.02622,-0.23578
2.086,0.0442,-0.23144,-0.32908,0.1638,0.19616,-0.27634,0.22176,0.14444,0.17772,0.17606,-0.02622,-0.23578
2.088,0.05224,-0.22656,-0.32908,0.15636,0.19616,-0.27634,0.22176,0.14654,0.17952,0.17606,-0.02622,-0.23206
2.09,0.02812,-0.23144,-0.31784,0.17126,0.17946,-0.27108,0.23172,0.14864,0.18132,0.1795,-0.02402,-0.22834
2.092,0.05224,-0.22656,-0.32908,0.15636,0.19616,-0.27634,0.23172,0.14864,0.18132,0.1795,-0.02184,-0.23206
2.094,0.06832,-0.2217,-0.3347,0.14146,0.20452,-0.27634,0.22176,0.14654,0.18132,0.1795,-0.02184,-0.23206
2.096,0.06832,-0.2022,-0.31784,0.12658,0.19616,-0.2553,0.23172,0.15072,0.18312,0.1812,-0.01748,-0.23206
2.098,0.08442,-0.19734,-0.31784,0.12658,0.20452,-0.2553,0.2367,0.15492,0.1849,0.18292,-0.01528,-0.22464
2.1,0.06832,-0.21194,-0.32346,0.13402,0.20452,-0.26582,0.2417,0.15492,0.1867,0.18292,-0.01528,-0.22834
2.102,0.07636,-0.21682,-0.3347,0.13402,0.20452,-0.27108,0.2417,0.15282,0.1867,0.18292,-0.01748,-0.22834
2.104,0.0442,-0.21194,-0.3122,0.14892,0.17946,-0.2553,0.2417,0.15492,0.1903,0.18808,-0.01528,-0.22464
2.106,0.02812,-0.19734,-0.28408,0.14146,0.14608,-0.2395,0.25166,0.157,0.19208,0.1898,-0.0131,-0.22092
2.108,0.05224,-0.19246,-0.2897,0.12658,0.16276,-0.2395,0.25166,0.1591,0.19388,0.19152,-0.01092,-0.22092
2.11,0.06832,-0.17784,-0.28408,0.11168,0.17112,-0.22898,0.25664,0.1612,0.19388,0.19324,-0.00874,-0.22092
2.112,0.06832,-0.18272,-0.2897,0.11912,0.17112,-0.23424,0.25664,0.1591,0.19208,0.19152,-0.01092,-0.22092
2.114,0.06028,-0.18758,-0.2897,0.12658,0.17112,-0.23424,0.26162,0.1591,0.19208,0.1898,-0.01092,-0.22464
2.116,0.06028,-0.1681,-0.2672,0.11168,0.15442,-0.21318,0.26662,0.16328,0.19388,0.19324,-0.00436,-0.22092
2.118,0.08442,-0.15836,-0.27284,0.08934,0.17112,-0.21318,0.27658,0.16538,0.19748,0.19496,-0.00436,-0.2135
2.12,0.07636,-0.17296,-0.28408,0.10422,0.17112,-0.2237,0.27658,0.16538,0.19748,0.19496,-0.00656,-0.22092
2.122,0.06028,-0.1681,-0.2672,0.11168,0.15442,-0.21318,0.28654,0.16956,0.20106,0.19838,-0.00436,-0.2172
2.124,0.05224,-0.15836,-0.25034,0.10422,0.13772,-0.20266,0.28156,0.16956,0.20286,0.19838,-0.00436,-0.2135
2.126,0.08442,-0.1486,-0.26158,0.08188,0.16276,-0.20266,0.27658,0.16748,0.20286,0.19838,-0.00436,-0.2172
2.128,0.09246,-0.13886,-0.26158,0.067,0.17112,-0.19738,0.27658,0.16956,0.20286,0.2001,-0.00218,-0.2135
2.13,0.08442,-0.13886,-0.25034,0.07444,0.15442,-0.19212,0.27658,0.16748,0.20286,0.20182,-0.00218,-0.2172
2.132,0.06832,-0.13398,-0.23346,0.08188,0.12938,-0.1816,0.28156,0.16538,0.20286,0.20354,-0.00218,-0.2172
2.134,0.06028,-0.11938,-0.21096,0.07444,0.11268,-0.16054,0.28156,0.16538,0.20286,0.20526,0.00216,-0.20978
2.136,0.07636,-0.10962,-0.21096,0.05954,0.12102,-0.15528,0.27658,0.16328,0.20286,0.20526,0.00654,-0.20606
2.138,0.06832,-0.10476,-0.1997,0.05954,0.10434,-0.15002,0.26662,0.15492,0.19568,0.20182,0.00436,-0.20606
2.14,0.08442,-0.10476,-0.21096,0.0521,0.12102,-0.15528,0.2417,0.14654,0.1903,0.19838,0.00216,-0.20978
2.142,0.07636,-0.10476,-0.20534,0.0521,0.11268,-0.15002,0.23172,0.14234,0.1867,0.19496,0.0,-0.20978
2.144,0.08442,-0.10476,-0.21658,0.04466,0.12938,-0.15528,0.2118,0.14026,0.1867,0.19496,-0.00218,-0.20978
2.146,0.08442,-0.09014,-0.1997,0.0372,0.12102,-0.13948,0.20182,0.13816,0.1849,0.19324,-0.00436,-0.20978
2.148,0.08442,-0.09014,-0.19408,0.0372,0.11268,-0.13948,0.19684,0.13398,0.18312,0.19152,-0.00656,-0.20978
2.15,0.08442,-0.09014,-0.19408,0.0372,0.11268,-0.13948,0.18688,0.12978,0.18132,0.19152,-0.00436,-0.2135
2.152,0.09246,-0.0804,-0.19408,0.02232,0.12102,-0.13422,0.18688,0.12978,0.17952,0.19152,-0.00436,-0.20978
2.154,0.1005,-0.09014,-0.21096,0.02976,0.13772,-0.14476,0.19186,0.13188,0.18132,0.19152,-0.00436,-0.20236
2.156,0.09246,-0.09988,-0.21658,0.0372,0.13772,-0.15528,0.20182,0.13398,0.18132,0.19152,-0.00218,-0.20236
2.158,0.10854,-0.10476,-0.23346,0.0372,0.15442,-0.1658,0.2118,0.13816,0.18312,0.19152,-0.00218,-0.19492
2.16,0.12462,-0.10962,-0.25034,0.02976,0.17946,-0.17634,0.21678,0.14234,0.1867,0.19496,0.00216,-0.19492
2.162,0.11658,-0.12424,-0.26158,0.04466,0.17946,-0.18686,0.22176,0.14234,0.1867,0.19324,0.0,-0.19492
2.164,0.11658,-0.14374,-0.28408,0.05954,0.19616,-0.20792,0.22176,0.14444,0.1885,0.19496,0.0,-0.19492
2.166,0.11658,-0.1486,-0.2897,0.067,0.20452,-0.21318,0.22176,0.14864,0.19208,0.19496,0.0,-0.19492
2.168,0.13266,-0.15836,-0.3122,0.067,0.2212,-0.22898,0.2068,0.14864,0.1903,0.19496,-0.00218,-0.19864
2.17,0.14874,-0.16322,-0.32346,0.05954,0.2379,-0.2395,0.2068,0.14864,0.19208,0.19496,-0.00218,-0.19864
2.172,0.13266,-0.15836,-0.3122,0.067,0.2212,-0.22898,0.21678,0.14864,0.19208,0.19666,-0.00218,-0.19492
2.174,0.13266,-0.16322,-0.31784,0.067,0.2212,-0.23424,0.2118,0.14864,0.19208,0.19666,0.0,-0.19122
2.176,0.13266,-0.16322,-0.31784,0.067,0.2212,-0.23424,0.2118,0.14864,0.19208,0.19496,0.0,-0.19122
2.178,0.13266,-0.1681,-0.31784,0.07444,0.22956,-0.2395,0.20182,0.14654,0.1885,0.19152,-0.00218,-0.19492
2.18,0.11658,-0.1681,-0.3122,0.08188,0.21286,-0.23424,0.20182,0.14234,0.1867,0.19152,-0.00436,-0.19864
2.182,0.1005,-0.16322,-0.29534,0.08188,0.19616,-0.2237,0.2068,0.14234,0.1867,0.1898,-0.00436,-0.19492
2.184,0.10854,-0.1681,-0.30658,0.08188,0.20452,-0.23424,0.20182,0.13816,0.1849,0.1898,-0.00218,-0.19122
2.186,0.12462,-0.16322,-0.3122,0.07444,0.21286,-0.23424,0.20182,0.13816,0.18312,0.18808,-0.00436,-0.19122
2.188,0.10854,-0.18272,-0.31784,0.09678,0.21286,-0.25002,0.19684,0.13606,0.18132,0.18464,-0.00656,-0.19864
2.19,0.08442,-0.19734,-0.31784,0.12658,0.20452,-0.2553,0.20182,0.14026,0.18312,0.18636,-0.00874,-0.20236
2.192,0.08442,-0.2022,-0.32346,0.12658,0.20452,-0.26056,0.2118,0.14026,0.18132,0.18464,-0.01092,-0.20978
2.194,0.06028,-0.21682,-0.32346,0.14146,0.19616,-0.26582,0.22674,0.14234,0.18312,0.18464,-0.0131,-0.2172
2.196,0.06028,-0.21682,-0.32346,0.14146,0.19616,-0.26582,0.22674,0.14444,0.18132,0.18292,-0.0131,-0.22092
2.198,0.07636,-0.21682,-0.3347,0.13402,0.20452,-0.27108,0.22674,0.14444,0.18132,0.1812,-0.01092,-0.22092
2.2,0.07636,-0.21194,-0.32908,0.13402,0.20452,-0.26582,0.22674,0.14444,0.18132,0.1812,-0.0131,-0.22092
2.202,0.05224,-0.2217,-0.32346,0.14892,0.19616,-0.27108,0.22674,0.14234,0.17952,0.1795,-0.01748,-0.22464
2.204,0.02008,-0.2363,-0.31784,0.1787,0.17112,-0.27634,0.22674,0.14026,0.17772,0.17778,-0.01966,-0.23206
2.206,0.02008,-0.2363,-0.31784,0.1787,0.17112,-0.27634,0.22674,0.14026,0.17772,0.17778,-0.02402,-0.23578
2.208,0.02812,-0.24606,-0.3347,0.1787,0.18782,-0.28688,0.22176,0.14026,0.17592,0.17606,-0.0284,-0.23948
2.21,0.03616,-0.25092,-0.34596,0.1787,0.20452,-0.2974,0.21678,0.13816,0.17592,0.17262,-0.03058,-0.2469
2.212,0.0442,-0.26068,-0.36284,0.18614,0.21286,-0.30792,0.2118,0.13606,0.17414,0.17262,-0.03058,-0.2432
2.214,0.01204,-0.27528,-0.3572,0.20848,0.19616,-0.3132,0.21678,0.13816,0.17234,0.17434,-0.03058,-0.2432
2.216,0.004,-0.27528,-0.35158,0.21594,0.18782,-0.3132,0.21678,0.13816,0.17054,0.17262,-0.03058,-0.2432
2.218,0.0442,-0.26554,-0.36846,0.18614,0.21286,-0.3132,0.21678,0.13816,0.17234,0.17262,-0.03058,-0.2432
2.22,0.03616,-0.26068,-0.3572,0.18614,0.20452,-0.30792,0.21678,0.14026,0.17414,0.17434,-0.0284,-0.23948
2.222,-0.01206,-0.28016,-0.34596,0.22338,0.17946,-0.3132,0.21678,0.14026,0.17414,0.17434,-0.03058,-0.2432
2.224,0.02008,-0.26554,-0.35158,0.20104,0.19616,-0.30792,0.22176,0.14026,0.17592,0.17434,-0.0284,-0.2432
2.226,0.0442,-0.26068,-0.36284,0.18614,0.21286,-0.30792,0.22176,0.13816,0.17234,0.17262,-0.03058,-0.2432
2.228,0.01204,-0.27528,-0.3572,0.20848,0.19616,-0.3132,0.22674,0.14026,0.17414,0.17434,-0.03058,-0.2469
2.23,0.004,-0.27528,-0.35158,0.21594,0.18782,-0.3132,0.23172,0.14444,0.17772,0.17606,-0.0284,-0.2432
2.232,0.02008,-0.27528,-0.36284,0.20848,0.20452,-0.31846,0.23172,0.14234,0.17414,0.17606,-0.03058,-0.2469
2.234,0.03616,-0.28504,-0.38534,0.20848,0.2212,-0.33424,0.22674,0.13816,0.17234,0.17262,-0.03276,-0.25062
2.236,0.02812,-0.27042,-0.36284,0.20104,0.20452,-0.3132,0.2367,0.14234,0.17414,0.17262,-0.03058,-0.25062
2.238,0.01204,-0.27042,-0.35158,0.20848,0.19616,-0.30792,0.25166,0.14654,0.17952,0.17606,-0.02402,-0.2432
2.24,0.01204,-0.26554,-0.34596,0.20104,0.18782,-0.30266,0.24668,0.14444,0.17772,0.17434,-0.02622,-0.2469
2.242,0.02008,-0.26554,-0.35158,0.20104,0.19616,-0.30792,0.2417,0.14444,0.17772,0.17434,-0.02622,-0.2432
2.244,0.02008,-0.26554,-0.35158,0.20104,0.19616,-0.30792,0.2367,0.14654,0.17772,0.17606,-0.02622,-0.2469
2.246,0.03616,-0.25092,-0.34596,0.1787,0.20452,-0.2974,0.2367,0.14654,0.17772,0.17606,-0.02402,-0.2432
2.248,0.05224,-0.25092,-0.3572,0.17126,0.21286,-0.30266,0.2417,0.14864,0.17952,0.17778,-0.02184,-0.2432
2.25,0.03616,-0.26068,-0.3572,0.18614,0.20452,-0.30792,0.2367,0.14864,0.17952,0.17778,-0.02402,-0.2432
2.252,0.004,-0.28016,-0.3572,0.21594,0.19616,-0.31846,0.24668,0.15072,0.17952,0.1795,-0.02622,-0.25062
2.254,0.004,-0.2899,-0.36846,0.22338,0.20452,-0.32898,0.25664,0.15492,0.1849,0.1795,-0.0284,-0.25804
2.256,-0.00402,-0.29964,-0.37408,0.23828,0.20452,-0.33424,0.28654,0.16956,0.19568,0.18636,-0.03058,-0.26548
2.258,-0.0201,-0.31914,-0.38534,0.26062,0.20452,-0.35004,0.32642,0.18422,0.21184,0.19496,-0.03276,-0.27662
2.26,-0.0201,-0.32888,-0.39658,0.26806,0.20452,-0.36056,0.37624,0.21144,0.23158,0.2087,-0.03058,-0.28404
2.262,-0.03618,-0.34838,-0.40784,0.2904,0.20452,-0.37636,0.42608,0.24494,0.26032,0.2276,-0.02402,-0.29146
2.264,-0.03618,-0.36786,-0.43034,0.3053,0.2212,-0.3974,0.46596,0.27426,0.29084,0.24648,-0.01966,-0.29518
2.266,-0.01206,-0.35812,-0.43596,0.28296,0.2379,-0.3974,0.4809,0.29518,0.31418,0.27398,-0.00436,-0.29146
2.268,0.02812,-0.31426,-0.41346,0.23082,0.2379,-0.36056,0.49088,0.3245,0.35726,0.32378,0.03056,-0.26176
2.27,0.08442,-0.27042,-0.4022,0.17126,0.26294,-0.33424,0.53074,0.37056,0.41832,0.3839,0.07644,-0.22092
2.272,0.12462,-0.23144,-0.39096,0.12658,0.27964,-0.30792,0.56064,0.40196,0.4632,0.43716,0.1223,-0.1838
2.274,0.15678,-0.18272,-0.35158,0.07444,0.26294,-0.26056,0.58556,0.41034,0.48474,0.48526,0.1791,-0.13552
2.276,0.16482,-0.09988,-0.2672,0.00742,0.20452,-0.17634,0.5756,0.37894,0.45422,0.50244,0.22498,-0.07612
2.278,0.18894,-0.03654,-0.21096,-0.05214,0.17946,-0.11844,0.52078,0.31194,0.3806,0.49212,0.26866,-0.013
2.28,0.24522,0.0414,-0.1547,-0.1415,0.17112,-0.04474,0.44602,0.23656,0.3034,0.4801,0.31672,0.05752
2.282,0.28544,0.1291,-0.0872,-0.22342,0.13772,0.02892,0.34634,0.157,0.2244,0.47666,0.37788,0.1355
2.284,0.33368,0.2168,-0.01408,-0.31278,0.10434,0.11314,0.26662,0.08372,0.15618,0.47838,0.44998,0.23574
2.286,0.34172,0.31424,0.09278,-0.3947,0.0292,0.21316,0.1769,0.00416,0.08616,0.46464,0.50678,0.31744
2.288,0.30956,0.4117,0.22778,-0.45426,-0.08766,0.33422,0.0573,-0.09632,-0.01436,0.40624,0.51332,0.35828
2.29,0.33368,0.54324,0.36278,-0.55852,-0.17114,0.46056,-0.06726,-0.18424,-0.11132,0.32894,0.50022,0.38426
2.292,0.30152,0.6407,0.49778,-0.62554,-0.28802,0.58162,-0.1769,-0.2638,-0.20108,0.2482,0.46526,0.38798
2.294,0.18894,0.6407,0.57652,-0.57342,-0.40488,0.6132,-0.23672,-0.33918,-0.29446,0.11766,0.35386,0.32486
2.296,-0.00402,0.53838,0.5934,-0.40214,-0.51342,0.57108,-0.24668,-0.42292,-0.41834,-0.11422,0.10484,0.13922
2.298,-0.2372,0.3386,0.52028,-0.14894,-0.5802,0.4237,-0.2118,-0.47946,-0.54222,-0.40282,-0.225,-0.1281
2.3,-0.31762,0.1096,0.31778,0.07444,-0.48002,0.2079,-0.19186,-0.48156,-0.5889,-0.54196,-0.41068,-0.29146
2.302,-0.3337,-0.07064,0.1209,0.21594,-0.3381,0.0184,-0.22176,-0.47946,-0.60864,-0.59692,-0.49586,-0.38058
